CH1,CH2,CH3,CH4,CH5,CH6,CH7,CH8
0.0,0.0,0.0,0.0,0.0,0.0,0.0,0.0
-6663.479705271686,-6708.965505238236,-6687.284313116588,-6744.750648111182,-125797.89767240259,-147006.61861975415,-125151.93225764422,-146313.37926547282
-6651.856798154927,-6700.337731878488,-6680.735251991183,-6739.743857353194,-125795.21546306796,-147004.94223892002,-125152.11107159985,-146314.76507362904
-6656.170684834801,-6703.601086568962,-6683.03748167008,-6741.487293420708,-125797.13771309111,-147006.46215754296,-125153.00514137807,-146315.2344602626
-6667.234798340178,-6711.603011083962,-6688.804231739549,-6745.689421378305,-125800.19990208148,-147008.54086977732,-125153.16160358925,-146314.02746606202
-6662.138600604368,-6707.177365681811,-6684.915028204326,-6742.135494009912,-125797.60709972467,-147006.17158486505,-125151.06053961047,-146312.32873348342
-6648.615795208907,-6696.828507999005,-6676.957807178236,-6735.653488117873,-125793.65084095608,-147003.17645110804,-125150.12176634333,-146312.75341662805
-6650.023955109591,-6697.901391732859,-6677.829525211993,-6736.2793369626215,-125794.92489039003,-147004.33874181972,-125151.26170531055,-146313.60278291735
-6661.959786648726,-6706.730330792705,-6684.110365403934,-6741.196720742789,-125798.59057648071,-147006.93154417654,-125151.90990589977,-146312.8428236059
-6658.942301147259,-6703.668141802328,-6680.958769435736,-6737.978069541225,-125795.86366365716,-147004.09287263072,-125148.89242039829,-146309.75828287104
-6644.9501091182365,-6692.894600974871,-6672.46510654272,-6731.09373224899,-125791.54977697728,-147000.74011096242,-125147.41720526424,-146309.84768984886
-6644.681888184773,-6693.1404701638785,-6673.001548409647,-6731.987802027203,-125793.40497176707,-147002.64000924112,-125149.96530413214,-146312.6416579058
-6655.991870879158,-6701.343560378977,-6678.969464179214,-6736.324040451532,-125796.75773343537,-147005.0539976423,-125150.3899872768,-146311.65818114975
-6655.209559823223,-6699.600124311462,-6676.555475778041,-6733.328906694521,-125793.82965491172,-147001.81299469626,-125146.34432153039,-146307.25488749205
-6642.580824205974,-6690.033577684591,-6669.17940010779,-6727.383342669409,-125790.23102405442,-146999.17548885054,-125145.71847268564,-146307.81368110343
-6639.563338704507,-6688.491307317175,-6668.575903007496,-6727.450397902775,-125791.72859093292,-147001.18714585152,-125148.64655120928,-146311.21114626064
-6649.755734176128,-6695.912086476337,-6673.8285629544935,-6731.361953182453,-125794.85783515667,-147003.3999685526,-125149.11593784284,-146310.40648346025
-6654.494304000653,-6698.907220233348,-6675.527295533097,-6732.256022960666,-125795.37192527913,-147003.31056157476,-125147.86424015334,-146308.37247471482
-6642.089085827957,-6689.094804417468,-6667.637129740373,-6725.61755485744,-125790.83452115471,-146999.53311676183,-125145.76317617456,-146307.4337014477
-6635.271803769088,-6684.3338828484875,-6664.329071560988,-6723.270621689632,-125790.43218975452,-146999.7566342064,-125147.39485351979,-146309.95944857114
-6644.324260273488,-6690.927647462803,-6669.335862318977,-6727.1821769693115,-125793.695544445,-147002.37178830765,-125148.49008899809,-146309.9818003156
-6650.4039347653315,-6694.66038878684,-6671.325167575499,-6728.076246747523,-125793.85200665618,-147001.67888422954,-125146.23256280812,-146306.76314911403
-6639.943318360248,-6686.367891593921,-6664.46318202772,-6722.108330977957,-125789.67223044304,-146998.16966035005,-125144.04209185149,-146305.4890996801
-6632.07550431198,-6681.249342113655,-6661.132772103879,-6720.096673976979,-125789.91809963205,-146999.22019233945,-125146.76900467504,-146309.42300670422
-6639.183359048768,-6686.65846427184,-6665.290196572566,-6723.4270839008195,-125793.13675083361,-147001.7459394629,-125148.44538550919,-146310.25002124906
-6647.565263219508,-6692.156993407845,-6668.710013474228,-6725.61755485744,-125794.20963456747,-147001.99180865192,-125146.74665293058,-146307.3889979588
-6640.636222438362,-6686.70316776075,-6664.0832023719795,-6721.705999577761,-125791.50507348837,-146999.8460411842,-125145.27143779653,-146306.4278729472
-6630.175606033279,-6679.327092090499,-6658.897597658348,-6717.906203020359,-125790.23102405442,-146999.48841327292,-125146.92546688623,-146309.31124798194
-6636.747018903139,-6684.870324715415,-6663.770277949605,-6722.264793189143,-125794.94724213448,-147003.86935518615,-125150.85937391037,-146312.77576837252
-6649.018126609102,-6694.012188197636,-6670.587560008474,-6727.584508369507,-125799.12701834763,-147007.04330289882,-125152.04401636649,-146312.70871313915
-6644.436018995764,-6690.033577684591,-6666.8995221733485,-6724.164691467845,-125796.60127122418,-147004.60696275317,-125149.80884192097,-146310.65235264925
-6630.242661266645,-6679.058871157035,-6658.249397069144,-6717.190947197789,-125792.17562582203,-147001.23184934043,-125148.44538550919,-146310.67470439372
-6631.248489767134,-6679.952940935247,-6659.0317081250805,-6717.883851275904,-125793.65084095608,-147002.66236098556,-125149.89824889878,-146312.10521603885
-6643.117266072902,-6688.647769528362,-6665.401955294843,-6722.734179822705,-125797.38358228012,-147005.38927380912,-125150.63585646581,-146311.36760847183
-6641.93262361677,-6687.284313116588,-6663.636167482873,-6720.811929799549,-125795.79660842379,-147003.6011342527,-125148.60184772038,-146309.2888962375
-6627.202824020723,-6675.75081297765,-6654.2707865561,-6713.033522729102,-125790.5439484768,-146999.37665455064,-125146.41137676376,-146308.46188169264
-6624.319448985988,-6673.537990276574,-6652.79557142205,-6711.8041767840605,-125790.61100371016,-146999.57782025074,-125147.2383913086,-146309.51241368204
-6636.210577036211,-6682.411632825331,-6659.41168778082,-6716.90037451987,-125794.72372468993,-147002.81882319675,-125148.44538550919,-146309.4900619376
-6639.8986148713375,-6684.9820834376915,-6661.021013381603,-6718.017961742636,-125795.70720144597,-147003.42232029705,-125148.22186806463,-146308.86421309283
-6628.342762987943,-6676.331958333488,-6654.382545278376,-6712.85470877346,-125792.91323338906,-147001.47771852944,-125148.19951632018,-146310.04885554896
-6624.252393752622,-6673.761507721128,-6652.84027491096,-6712.13945295089,-125793.85200665618,-147002.93058191903,-125150.63585646581,-146313.043989306
-6634.981231091169,-6681.651673513851,-6658.830542424982,-6716.788615797594,-125797.76356193586,-147005.9480674205,-125151.99931287758,-146313.15574802825
-6639.071600326491,-6683.909199703837,-6659.724612203195,-6716.632153586406,-125797.22712006893,-147004.76342496436,-125149.63002796532,-146310.02650380452
-6629.54975718853,-6676.89075194487,-6654.449600511743,-6712.608839584451,-125795.28251830132,-147003.55643076377,-125149.87589715433,-146311.4346637052
-6621.860757095905,-6671.392222808865,-6650.448638254242,-6709.680761060806,-125794.52255898983,-147003.42232029705,-125151.17229833273,-146313.66983815073
-6628.320411243488,-6675.549647277552,-6653.019088866603,-6711.200679683767,-125795.55073923478,-147003.82465169724,-125150.34528378789,-146311.7922916165
-6634.310678757511,-6679.014167668124,-6654.740173189661,-6711.714769806239,-125795.14840783458,-147002.70706447447,-125147.57366747543,-146307.9924950591
-6625.2805739975665,-6672.018071653613,-6648.9957748646475,-6706.886793003892,-125791.97446012193,-147000.2483725844,-125146.12080408583,-146307.3442944699
-6615.646972137329,-6665.2231413392,-6644.056039340025,-6703.310513891043,-125790.70041068798,-146999.82368943974,-125147.43955700869,-146309.87004159333
-6621.324315228977,-6669.380565807887,-6647.0064696081245,-6705.61274356994,-125793.0920473447,-147001.58947725172,-125148.37833027582,-146310.11591078233
-6630.466178711197,-6675.594350766462,-6651.186245821267,-6708.5184703491295,-125794.88018690112,-147002.43884354102,-125147.35015003088,-146307.8360328479
-6624.878242597371,-6671.235760597678,-6647.542911475052,-6705.366874380931,-125792.98028862242,-147000.8518696847,-125146.45608025267,-146307.45605319215
-6611.556602902008,-6661.043365126057,-6639.652745682329,-6698.862516744437,-125789.00167810937,-146997.8567359277,-125145.49495524108,-146307.85838459234
-6618.396236705332,-6666.966577406714,-6645.151274818334,-6704.048121458069,-125794.63431771212,-147003.26585808586,-125150.36763553234,-146312.4851956946
-6630.108550799912,-6675.482592044186,-6651.3427080324545,-6708.674932560317,-125798.21059682497,-147005.72454997594,-125150.94878088818,-146311.65818114975
-6624.766483875094,-6670.475801286198,-6646.537082974563,-6704.025769713613,-125794.25433805637,-147001.81299469626,-125147.2383913086,-146307.97014331463
-6613.232983736156,-6662.317414560011,-6640.45740848272,-6699.600124311462,-125792.57795722222,-147001.16479410706,-125148.44538550919,-146310.71940788263
-6613.903536069815,-6663.189132593767,-6641.485588727664,-6700.51654583413,-125794.41080026756,-147003.13174761913,-125150.56880123244,-146312.70871313915
-6624.654725152818,-6670.8334291974825,-6646.872359141393,-6704.383397624898,-125797.0930096022,-147004.80812845327,-125150.3899872768,-146311.07703579392
-6627.247527509633,-6672.755679220639,-6648.347574275444,-6705.679798803306,-125798.61292822516,-147006.1045296317,-125151.2393535661,-146311.70288463865
-6614.283515725555,-6663.010318638125,-6640.859739882915,-6699.577772567007,-125795.10370434567,-147003.53407901933,-125150.70291169918,-146312.52989918352
-6610.863698823893,-6660.573978492496,-6639.116303815402,-6698.236667899689,-125795.14840783458,-147003.93641041953,-125151.6416849663,-146313.8933555953
-6622.2854402405555,-6668.911179174326,-6645.397144007343,-6702.9975894686695,-125799.03761136981,-147006.7527302209,-125152.71456870015,-146313.64748640626
-6625.302925742022,-6670.632263497385,-6646.090048085457,-6703.198755168767,-125798.94820439199,-147006.21628835396,-125151.30640879947,-146311.5911259164
-6615.646972137329,-6663.837333182971,-6641.284423027566,-6699.80129001156,-125797.83061716922,-147006.12688137614,-125152.7369204446,-146314.3850939733
-6610.997809290625,-6660.84219942596,-6639.4292282377755,-6698.795461511071,-125798.56822473624,-147007.42328255455,-125155.12855710133,-146317.60374517486
-6619.469120439187,-6666.765411706617,-6643.407838750821,-6701.477670845708,-125800.53517824832,-147008.51851803286,-125154.81563267895,-146316.06147480744
-6622.598364662929,-6668.0171093961135,-6643.050210839536,-6700.114214433935,-125798.63527996962,-147005.85866044267,-125150.79231867699,-146311.1440910273
-6610.483719168154,-6658.227045324689,-6634.981231091169,-6693.162821908334,-125793.76259967836,-147001.76829120735,-125148.06540585344,-146309.35595147085
-6601.855945808405,-6651.767391177105,-6630.242661266645,-6689.608894539941,-125792.28738454431,-147001.12009061815,-125148.91477214274,-146311.27820149402
-6608.4944139116305,-6656.438905768265,-6633.371905490388,-6691.79936549656,-125794.05317235627,-147002.41649179655,-125148.87006865384,-146310.3841317158
-6618.351533216422,-6663.703222716239,-6638.736324159661,-6695.912086476337,-125797.33887879121,-147004.78577670883,-125149.60767622087,-146309.8923933378
-6609.097911011924,-6656.237740068167,-6632.477835712175,-6690.547667807063,-125793.53908223381,-147001.36595980715,-125147.2383913086,-146308.283067737
-6598.59259111793,-6648.504036486631,-6626.934603087259,-6686.2114293827335,-125791.72859093292,-147000.47189002894,-125148.06540585344,-146310.40648346025
-6605.812204576994,-6654.382545278376,-6631.784931634061,-6690.480612573697,-125796.0424776128,-147004.450500542,-125151.21700182164,-146312.9322305837
-6615.2446407371335,-6660.84219942596,-6635.987059591658,-6693.319284119521,-125797.87532065813,-147005.23281159793,-125150.23352506562,-146310.540593927
-6607.220364477678,-6653.801399922539,-6629.639164166351,-6687.3290166054985,-125792.98028862242,-147000.6507039846,-125146.09845234138,-146306.9419630697
-6594.412814904787,-6644.279556784578,-6622.2854402405555,-6681.472859558208,-125789.7392856764,-146998.41552953905,-125145.91963838573,-146308.01484680353
-6598.59259111793,-6647.7664289196055,-6625.4593879532085,-6684.400938081853,-125793.15910257807,-147001.6565324851,-125148.91477214274,-146310.76411137154
-6609.276724967566,-6655.164856334312,-6630.64499266684,-6688.044272428068,-125795.66249795706,-147003.01998889685,-125148.35597853137,-146308.8418613484
-6606.370998188377,-6652.437943510765,-6627.9851350766585,-6685.429118326798,-125793.65084095608,-147001.14244236262,-125146.36667327484,-146306.87490783632
-6593.854021293405,-6643.229024795178,-6621.190204762245,-6680.08705140198,-125791.01333511036,-146999.3990062951,-125146.76900467504,-146308.61834390383
-6593.49639338212,-6643.206673050723,-6621.212556506701,-6680.288217102077,-125792.30973628876,-147000.76246270686,-125148.33362678692,-146310.40648346025
-6604.359341187399,-6650.962728376714,-6626.554623431519,-6684.199772381756,-125795.03664911231,-147002.68471273003,-125148.288923298,-146308.95362007065
-6603.957009787204,-6649.822789409493,-6624.922946086282,-6682.1657636363225,-125793.24850955588,-147000.47189002894,-125145.67376919673,-146306.00318980255
-6591.2388671921335,-6640.256242782622,-6617.613925649396,-6676.242551355666,-125789.98515486541,-146998.12495686114,-125145.18203081872,-146306.8972595808
-6590.747128814117,-6640.725629416183,-6618.8879750833485,-6678.097746145457,-125793.36026827816,-147001.88004992963,-125149.65237970978,-146311.74758812756
-6602.392387675332,-6649.50986498712,-6625.593498419941,-6683.41746132582,-125797.78591368032,-147005.36692206466,-125151.41816752174,-146312.2393265056
-6608.40500693381,-6654.024917367091,-6629.013315321603,-6686.166725893823,-125800.22225382594,-147007.33387557673,-125152.42399602223,-146312.55225092795
-6596.089195738936,-6644.45837074022,-6621.324315228977,-6679.841182212971,-125796.17658807953,-147004.22698309744,-125150.90407739927,-146312.1946230167
-6589.294265424522,-6639.608042193418,-6617.859794838405,-6677.2260281117,-125795.46133225696,-147004.09287263072,-125151.95460938867,-146313.9827625731
-6599.598419618419,-6647.431152752776,-6623.961821074703,-6682.121060147412,-125799.68581195902,-147007.51268953236,-125153.92156290074,-146314.80977711795
-6605.454576665709,-6651.208597565723,-6626.040533309047,-6683.171592136811,-125800.13284684812,-147007.19976511,-125152.22283032213,-146312.32873348342
-6594.770442816072,-6642.625527694885,-6619.111492527902,-6677.337786833977,-125796.15423633507,-147003.86935518615,-125150.14411808779,-146311.3452567274
-6585.740338056128,-6636.009411336114,-6614.3058674700105,-6673.716804232216,-125794.7907799233,-147003.31056157476,-125151.28405705502,-146313.37926547282
-6593.87637303786,-6642.402010250332,-6619.35736171691,-6677.807173467538,-125798.61292822516,-147006.5962680097,-125153.47452801163,-146314.67566665122
-6601.967704530681,-6647.833484152971,-6622.732475129661,-6679.952940935247,-125799.84227417021,-147007.04330289882,-125152.04401636649,-146312.14991952776
-6595.239829449633,-6642.670231183795,-6618.597402405429,-6676.555475778041,-125798.00943112487,-147005.5457360203,-125151.55227798848,-146312.37343697232
-6584.332178155444,-6634.757713646617,-6612.808300591505,-6672.107478631435,-125796.08718110171,-147004.4952040309,-125152.46869951114,-146314.42979746222
-6589.897762524815,-6639.093952070946,-6616.317524470988,-6675.102612388446,-125799.19407358099,-147007.33387557673,-125154.54741174549,-146316.06147480744
-6600.492489396631,-6646.559434719019,-6621.480777440164,-6678.969464179214,-125801.87628291563,-147009.07731164424,-125154.30154255648,-146314.49685269556
-6594.792794560528,-6641.798513150038,-6617.099835526924,-6674.901446688348,-125798.99290788091,-147006.23864009843,-125151.90990589977,-146312.46284395014
-6581.605265331897,-6631.784931634061,-6609.410835434299,-6668.620606496407,-125795.43898051251,-147003.71289297496,-125151.35111228838,-146313.26750675053
-6585.002730489103,-6634.69065841325,-6612.07069302448,-6671.1240018754015,-125798.54587299179,-147006.7974337098,-125154.1897838342,-146316.06147480744
-6594.2563526936,-6640.8373881384605,-6615.870489581882,-6673.381528065387,-125799.73051544793,-147006.88684068763,-125152.2898855555,-146312.70871313915
-6592.982303259648,-6639.585690448963,-6614.551736659019,-6671.973368164703,-125798.83644566972,-147005.99277090942,-125151.26170531055,-146311.6805328942
-6581.269989165067,-6631.114379300401,-6608.44971042272,-6667.458315784731,-125796.86949215764,-147005.0539976423,-125152.40164427778,-146314.11687303983
-6579.303035653,-6629.572108932985,-6607.242716222134,-6666.586597750974,-125797.0930096022,-147005.38927380912,-125153.11690010034,-146315.07799805142
-6590.724777069661,-6637.88695787036,-6613.255335480611,-6671.146353619856,-125800.69164045951,-147007.91502093256,-125153.72039720064,-146314.27333525103
-6591.171811958768,-6637.484626470164,-6612.204803491212,-6669.581731507985,-125799.21642532546,-147006.17158486505,-125151.26170531055,-146311.4346637052
-6578.766593786072,-6628.231004265667,-6605.096948754424,-6663.882036671882,-125795.95307063498,-147003.91405867506,-125150.85937391037,-146312.35108522786
-6576.106736195891,-6626.956954831714,-6604.582858631952,-6664.060850627524,-125797.69650670249,-147006.01512265386,-125153.94391464519,-146315.86030910735
-6586.545000856519,-6634.422437479787,-6610.0813877679575,-6668.240626840667,-125801.00456488188,-147008.47381454395,-125154.70387395668,-146315.4356259627
-6590.389500902832,-6636.657611925318,-6611.131919757357,-6668.352385562943,-125800.84810267069,-147007.66915174355,-125152.89338265579,-146312.8875270948
-6577.7384135411285,-6626.688733898251,-6602.97353303117,-6661.535103504075,-125796.19893982398,-147003.89170693062,-125150.74761518808,-146311.8816985943
-6570.094116937414,-6620.899632084326,-6598.659646351296,-6658.294100558055,-125794.96959387895,-147003.26585808586,-125151.41816752174,-146313.37926547282
-6579.727718797651,-6628.231004265667,-6604.202878976212,-6662.764449449116,-125798.88114915862,-147006.39510230962,-125153.1392518448,-146314.02746606202
-6584.980378744648,-6631.3155450005,-6605.543983643531,-6662.9656151492145,-125798.36705903616,-147005.16575636456,-125150.41233902125,-146310.294724738
-6574.63152106184,-6623.000696063125,-6598.681998095751,-6657.1541615908345,-125794.47785550093,-147002.08121562973,-125148.40068202028,-146309.22184100412
-6568.753012270095,-6619.759693117106,-6597.318541683977,-6656.997699379647,-125796.71302994646,-147004.94223892002,-125153.02749312253,-146314.89918409576
-6575.704404795695,-6624.967649575192,-6601.341855685932,-6660.193998836756,-125799.84227417021,-147007.44563429902,-125154.5921152344,-146315.61443991834
-6582.9016665103045,-6629.281536255066,-6603.599381875919,-6661.155123848334,-125799.81992242574,-147006.61861975415,-125152.02166462204,-146311.85934684984
-6574.519762339564,-6622.352495473921,-6597.609114361896,-6655.857760412427,-125795.90836714607,-147003.10939587466,-125149.27240005403,-146309.7359311266
-6565.44495409071,-6616.295172726533,-6593.719910826673,-6653.354365033432,-125795.95307063498,-147004.09287263072,-125152.17812683323,-146313.87100385083
-6570.384689615333,-6620.296134984033,-6596.938562028237,-6656.237740068167,-125799.10466660318,-147006.953895921,-125154.4356530232,-146315.68149515172
-6580.219457175667,-6626.934603087259,-6601.431262663754,-6659.098763358446,-125800.91515790406,-147007.93737267703,-125153.38512103382,-146313.44632070616
-6574.810335017483,-6622.1736815182785,-6597.072672494969,-6654.918987145304,-125797.67415495803,-147004.8975354311,-125150.5911529769,-146310.92057358273
-6563.567407556464,-6614.1270535143685,-6591.395329403321,-6650.783914421072,-125796.22129156844,-147004.33874181972,-125152.04401636649,-146313.7368933841
-6565.6461197908075,-6616.049303537525,-6593.228172448657,-6652.572053977497,-125798.76939043634,-147006.81978545425,-125154.48035651213,-146315.97206782963
-6574.58681757293,-6621.838405351449,-6596.73739632814,-6654.471952256197,-125799.66346021456,-147006.73037847644,-125152.40164427778,-146312.52989918352
-6572.642215805318,-6619.759693117106,-6594.345759671422,-6652.035612110569,-125797.60709972467,-147004.6516662421,-125150.05471110997,-146310.0935590379
-6562.271006378056,-6612.629486635863,-6589.473079380165,-6648.7052021867285,-125796.93654739101,-147004.91988717555,-125152.26753381104,-146313.82630036192
-6562.516875567064,-6613.523556414075,-6590.814184047483,-6650.336879531966,-125799.93168114802,-147008.18324186603,-125156.04497862399,-146317.78255913052
-6574.564465828475,-6622.419550707287,-6597.586762617441,-6655.544835990052,-125804.22321608344,-147011.46894830096,-125157.40843503576,-146317.84961436386
-6574.9220937397595,-6621.614887906896,-6596.06684399448,-6653.443772011254,-125802.09980036019,-147008.98790466643,-125154.16743208974,-146314.11687303983
-6563.209779645179,-6613.031818036058,-6589.54013461353,-6648.504036486631,-125799.55170149228,-147007.26682034336,-125154.32389430093,-146315.56973642943
-6558.471209820654,-6609.768463345584,-6587.237904934634,-6647.051173097036,-125799.73051544793,-147007.95972442147,-125155.97792339063,-146317.89431785277
-6567.434259347232,-6616.026951793069,-6591.507088125598,-6650.068658598502,-125801.96568989346,-147009.3008290888,-125155.73205420162,-146316.37439922983
-6571.0999454379025,-6617.792739605038,-6592.021178248069,-6649.643975453851,-125801.13867534861,-147007.95972442147,-125153.09454835589,-146312.90987883924
-6561.935730211227,-6611.221326735178,-6587.327311912455,-6646.0006411076365,-125799.77521893683,-147007.35622732117,-125153.9886181341,-146314.9885910736
-6554.0232126740475,-6605.521631899075,-6583.013425232581,-6642.781989906071,-125798.65763171407,-147006.88684068763,-125154.94974314568,-146316.91084109675
-6563.478000578642,-6612.629486635863,-6588.511954368586,-6647.2970422860435,-125802.70329746048,-147010.26195410037,-125157.05080712448,-146317.96137308615
-6571.323462882455,-6617.837443093949,-6592.110585225891,-6649.59927196494,-125804.31262306127,-147011.13367213414,-125156.26849606854,-146316.17323352973
-6562.96391045617,-6611.623658135374,-6587.193201445723,-6645.687716685262,-125802.1445038491,-147009.47964304444,-125155.77675769053,-146316.62026841883
-6553.375012084844,-6604.851079565416,-6582.298169410011,-6642.133789316868,-125800.91515790406,-147009.0996633887,-125157.16256584675,-146319.16836728674
-6560.214645888168,-6610.170794745779,-6586.522649112064,-6645.55360621853,-125804.37967829463,-147012.09479714572,-125159.26362982555,-146320.30830625395
-6567.858942491883,-6614.909364570304,-6589.16015495779,-6646.8276556524825,-125804.62554748364,-147011.51365178986,-125156.87199316884,-146316.62026841883
-6562.159247655779,-6610.461367423698,-6585.583875844941,-6643.765466662106,-125802.90446316058,-147010.06078840027,-125156.06733036845,-146316.41910271873
-6551.229244617134,-6602.682960353251,-6579.951236242204,-6639.652745682329,-125801.38454453762,-147009.45729129997,-125157.40843503576,-146319.14601554227
-6557.353622597889,-6607.823861577972,-6584.645102577818,-6643.810170151016,-125806.01135563987,-147013.86058495767,-125161.43174903771,-146322.69994291067
-6566.361375613377,-6613.791777347538,-6588.288436924034,-6646.0006411076365,-125807.195998096,-147013.99469542442,-125159.50949901456,-146319.48129170912
-6561.734564511128,-6609.567297645485,-6584.242771177623,-6642.200844550234,-125804.20086433899,-147011.24543085642,-125156.80493793548,-146316.97789633012
-6549.977546927637,-6601.051283008013,-6578.096041452413,-6637.663440425807,-125802.18920733801,-147010.19489886702,-125157.83311818042,-146319.48129170912
-6550.871616705849,-6601.9230010417705,-6578.990111230625,-6638.60221369293,-125804.0444021278,-147012.07244540125,-125159.8447751814,-146321.47059696564
-6559.119410409858,-6607.041550522036,-6581.672320565262,-6639.853911382426,-125804.29027131682,-147011.29013434533,-125157.11786235785,-146317.26846900804
-6557.3089191089775,-6604.895783054327,-6579.034814719536,-6636.970536347692,-125801.67511721553,-147008.6526284996,-125154.05567336747,-146314.00511431755
-6544.344907324899,-6595.150422471813,-6571.68109079374,-6631.114379300401,-125798.41176252507,-147006.32804707624,-125153.69804545619,-146315.0332945625
-6542.646174746296,-6594.166945715779,-6571.412869860276,-6631.136731044857,-125799.90932940357,-147008.11618663266,-125156.06733036845,-146317.7378556416
-6554.58200628543,-6602.995884775625,-6578.118393196869,-6636.367039247399,-125804.33497480572,-147011.53600353433,-125157.5872489914,-146318.07313180843
-6556.3477940974,-6603.621733620374,-6577.649006563307,-6635.294155513544,-125803.1950358385,-147009.92667793354,-125155.12855710133,-146314.9885910736
-6543.182616613223,-6593.54109687103,-6569.53532332603,-6628.655687410318,-125798.83644566972,-147006.48450928743,-125153.38512103382,-146314.49685269556
-6538.779322955528,-6590.791832303028,-6568.037756447525,-6627.940431587748,-125799.90932940357,-147008.11618663266,-125156.11203385735,-146317.91666959724
-6548.2117591156675,-6597.49735563962,-6572.955140227693,-6631.583765933963,-125802.92681490503,-147010.23960235593,-125156.71553095765,-146317.38022773032
-6553.10679115138,-6600.313675440989,-6574.340948383921,-6632.0308008230695,-125802.85975967167,-147009.47964304444,-125154.68152221222,-146314.56390792894
-6544.05433464698,-6593.697559082218,-6569.423564603754,-6628.141597287846,-125801.18337883752,-147008.51851803286,-125155.10620535687,-146316.01677131854
-6536.5888519989085,-6588.467250879676,-6565.780230257539,-6625.615850164396,-125800.8928061596,-147008.8984976886,-125156.98375189111,-146318.94484984217
-6543.607299757874,-6593.295227682022,-6569.200047159201,-6627.940431587748,-125802.97151839394,-147010.39606456712,-125157.1849175912,-146318.16253878624
-6549.374049827344,-6596.625637605863,-6570.697614037706,-6628.163949032301,-125802.30096606028,-147009.0996633887,-125154.14508034529,-146313.9827625731
-6540.142779367302,-6589.271913680067,-6564.528532568042,-6622.911289085304,-125798.83644566972,-147006.1045296317,-125152.13342334432,-146312.75341662805
-6531.760875196562,-6583.706329310695,-6560.9522534551925,-6620.78787336205,-125799.12701834763,-147007.19976511,-125155.10620535687,-146316.95554458565
-6537.505273521576,-6588.042567735025,-6564.3497186124,-6623.514786185598,-125801.80922768227,-147009.56905002226,-125156.67082746874,-146317.84961436386
-6547.429448059732,-6594.97160851617,-6569.1106401813795,-6626.8675478538935,-125804.13380910562,-147010.9995616674,-125156.24614432409,-146316.17323352973
-6541.662697990263,-6590.344797413922,-6565.132029668335,-6623.313620485499,-125801.92098640454,-147009.05495989977,-125154.8379844234,-146315.16740502923
-6531.045619373992,-6582.745204299117,-6559.812314487972,-6619.379713461365,-125800.87045441514,-147008.78673896633,-125156.55906874646,-146318.25194576406
-6533.571366497442,-6584.645102577818,-6561.287529622023,-6620.564355917497,-125802.56918699374,-147010.3513610782,-125157.83311818042,-146319.21307077564
-6544.791942214006,-6592.669378837273,-6567.076631435947,-6624.922946086282,-125805.67607947304,-147012.51948029036,-125158.05663562498,-146318.02842831952
-6542.2214916016455,-6590.277742180556,-6564.752050012595,-6622.754826874117,-125804.22321608344,-147011.13367213414,-125156.64847572429,-146316.73202714112
-6530.509177507064,-6581.82878277645,-6558.694727265207,-6618.2621262386,-125802.32331780474,-147010.30665758927,-125157.76606294705,-146319.28012600902
-6530.352715295878,-6581.87348626536,-6558.91824470976,-6618.552698916519,-125803.6420707276,-147011.69246574552,-125159.42009203674,-146321.00121033206
-6540.656869489774,-6589.093099724424,-6563.902683723293,-6621.927812329271,-125806.12311436214,-147013.21238436847,-125158.92835365873,-146319.16836728674
-6541.953270668182,-6589.786003802539,-6564.081497678936,-6621.748998373628,-125806.1901695955,-147013.16768087956,-125158.30250481398,-146318.22959401962
-6529.011610628559,-6579.839477519927,-6556.414849330766,-6615.490509926142,-125802.5915387382,-147010.44076805603,-125157.49784201359,-146318.81073937545
-6525.524738493531,-6577.246675163112,-6554.716116752162,-6614.283515725555,-125802.81505618276,-147010.97720992294,-125158.74953970309,-146320.53182369852
-6537.080590376925,-6585.852096778405,-6561.265177877567,-6619.402065205821,-125807.10659111818,-147014.35232333568,-125160.2918100705,-146320.73298939862
-6541.170959612246,-6588.668416579773,-6562.91920696726,-6620.363190217399,-125807.8441986852,-147014.68759950253,-125159.57655424793,-146319.4365882202
-6528.922203650738,-6579.280683908544,-6555.565483041463,-6614.395274447832,-125804.08910561672,-147011.80422446778,-125158.45896702516,-146319.48129170912
-6523.62484021483,-6575.704404795695,-6553.307956851478,-6612.987114547148,-125804.58084399473,-147012.87710820165,-125160.80590019298,-146322.52112895504
-6532.8337589304165,-6582.298169410011,-6558.158285398279,-6616.585745404452,-125807.66538472955,-147015.11228264717,-125161.49880427109,-146322.11879755484
-6537.639383988308,-6584.890971766827,-6559.253520876589,-6616.719855871183,-125807.21834984045,-147013.99469542442,-125159.01776063655,-146318.74368414207
-6528.072837361436,-6577.671358307763,-6553.620881273852,-6612.160100002301,-125804.64789922809,-147012.16185237907,-125158.45896702516,-146319.1907190312
-6519.914450635249,-6571.949311727204,-6549.686974249718,-6609.343780200932,-125804.13380910562,-147012.38536982363,-125160.24710658159,-146322.07409406593
-6529.3692385398435,-6579.481849608642,-6555.9007592082935,-6614.529384914564,-125809.11824811915,-147016.76631173686,-125163.53281301651,-146324.53278595602
-6535.404209542777,-6582.856963021393,-6557.264215620067,-6614.59644014793,-125808.2912335743,-147015.11228264717,-125160.13534785931,-146320.01773357604
-6527.067008860947,-6576.196143173712,-6551.631576017329,-6609.679056367762,-125804.98317539493,-147012.34066633473,-125158.2354495806,-146318.788387631
-6517.142834322791,-6569.200047159201,-6546.8035992149835,-6606.236887721645,-125804.02205038334,-147012.36301807917,-125160.0906443704,-146321.82822487692
-6522.1496250807795,-6572.955140227693,-6549.642270760807,-6608.472062167176,-125806.57014925125,-147014.50878554687,-125161.54350776,-146322.72229465513
-6530.240956573601,-6577.961930985682,-6552.436238817721,-6609.88022206786,-125806.90542541808,-147013.88293670214,-125158.97305714764,-146318.92249809773
-6524.653020459774,-6573.223361161156,-6548.234110860123,-6605.9686667881815,-125804.08910561672,-147011.35718957867,-125156.84964142439,-146317.0896550524
-6512.180747053712,-6563.969738956659,-6541.327421823433,-6600.559544629997,-125801.31748930425,-147009.5019947889,-125157.07315886894,-146318.56487018644
-6514.795901154984,-6566.1155064243685,-6543.227320102134,-6602.280628953055,-125803.75382944988,-147011.82657621225,-125159.15187110328,-146320.46476846514
-6525.971773382637,-6574.072727450458,-6548.904663193783,-6606.326294699466,-125806.7936666958,-147013.86058495767,-125159.2412780811,-146319.12366379783
-6523.982468126115,-6572.01636696057,-6546.8035992149835,-6604.202878976212,-125805.22904458393,-147012.27361110135,-125157.56489724695,-146317.51433819704
-6512.7618924095505,-6564.01444244557,-6541.10390437888,-6600.11250974089,-125803.75382944988,-147011.80422446778,-125159.040112381,-146320.4871202096
-6514.460624988154,-6566.093154679913,-6543.450837546688,-6602.727663842162,-125807.50892251838,-147015.71577974746,-125163.33164731642,-146324.95746910066
-6525.189462326702,-6573.44687860571,-6548.703497493684,-6606.393349932832,-125810.191131853,-147017.45921581498,-125163.13048161633,-146323.37049524434
-6525.502386749075,-6572.955140227693,-6547.518855037553,-6604.806376076505,-125808.78297195233,-147015.73813149193,-125160.78354844851,-146320.64358242077
-6512.448967987177,-6563.142724411813,-6539.852206689383,-6598.570239373475,-125805.05023062829,-147012.87710820165,-125159.86712692585,-146321.00121033206
-6507.911563862749,-6559.812314487972,-6537.460570032665,-6596.849155050416,-125804.82671318373,-147013.1006256462,-125160.96236240416,-146322.54348069947
-6515.377046510822,-6564.327366867944,-6539.986317156115,-6597.9890940176365,-125805.22904458393,-147012.65359075708,-125158.6377809808,-146318.96720158664
-6518.819215156939,-6566.048451191003,-6540.500407278587,-6597.832631806449,-125804.71495446147,-147011.60305876768,-125156.4920135131,-146316.12853004082
-6507.442177229188,-6557.375974342343,-6533.7725321975395,-6592.40115790381,-125801.51865500434,-147009.16671862206,-125155.70970245716,-146316.55321318546
-6500.3119707479445,-6552.212721373167,-6529.928032151227,-6589.361320657888,-125800.51282650387,-147008.8984976886,-125156.64847572429,-146318.47546320863
-6507.911563862749,-6557.510084809075,-6533.414904286255,-6591.73060557015,-125802.36802129365,-147010.01608491136,-125156.290847813,-146317.0896550524
-6515.712322677651,-6563.075669178447,-6537.259404332567,-6594.502221882609,-125804.46908527245,-147011.31248608977,-125156.22379257964,-146315.94971608516
-6506.7716248955285,-6556.280738864034,-6531.939689152204,-6590.098928224913,-125802.05509687128,-147009.61375351116,-125155.70970245716,-146316.284992252
-6496.288656745989,-6548.301166093489,-6525.81531117145,-6585.092137466924,-125799.55170149228,-147007.89266918812,-125155.59794373489,-146317.2908207525
-6501.943648093182,-6552.100962650891,-6528.4304652727205,-6586.902628767804,-125801.07162011524,-147008.8984976886,-125155.66499896825,-146316.4861579521
-6510.52671796402,-6557.912416209271,-6532.207910085668,-6589.383672402343,-125802.61389048267,-147009.52434653335,-125154.61446697885,-146314.16157652874
-6501.42955797071,-6550.2681196055555,-6525.412979771255,-6583.3039979105,-125798.05413461378,-147005.34457032022,-125151.19465007719,-146311.47936719412
-6492.019473555026,-6543.830817202427,-6521.09909309138,-6580.487678109131,-125797.80826542477,-147005.99277090942,-125153.65334196728,-146315.32386724043
-6497.294485246478,-6548.0329451600255,-6524.630668715319,-6583.460460121687,-125801.07162011524,-147008.96555292196,-125156.04497862399,-146317.24611726357
-6507.419825484732,-6555.073744663447,-6529.615107728852,-6586.768518301073,-125803.35149804968,-147010.26195410037,-125155.35207454588,-146315.2344602626
-6504.3352847499,-6552.682108006729,-6527.581098983419,-6585.047433978014,-125802.5915387382,-147009.81491921126,-125155.08385361242,-146315.30151549596
-6492.980598566604,-6544.501369536087,-6521.769645425039,-6580.7335472981395,-125801.02691662633,-147009.23377385543,-125156.46966176864,-146318.1401870418
-6494.947552078671,-6546.133046881324,-6523.334267536911,-6582.119355454369,-125803.17268409404,-147011.29013434533,-125158.57072574744,-146320.0847888094
-6505.586982439397,-6553.687936507218,-6528.4304652727205,-6585.762689800584,-125805.65372772858,-147012.78770122383,-125157.9895803916,-146318.20724227515
-6503.217697527135,-6551.117485894858,-6525.6141454713525,-6582.879314765849,-125803.1950358385,-147010.21725061146,-125155.21796407914,-146315.2344602626
-6490.432499698699,-6541.573291012442,-6518.416883756743,-6577.246675163112,-125800.08814335921,-147008.13853837713,-125155.15090884578,-146316.46380620764
-6489.292560731478,-6541.036849145514,-6518.305125034467,-6577.291378652022,-125801.51865500434,-147009.79256746682,-125157.27432456904,-146318.90014635326
-6500.468432959132,-6549.038773660514,-6524.183633826213,-6581.649968820807,-125804.93847190602,-147012.13950063463,-125157.76606294705,-146318.11783529734
-6501.697778904174,-6549.262291105068,-6523.602488470375,-6580.532381598042,-125803.70912596097,-147010.64193375612,-125155.50853675707,-146315.41327421824
-6489.314912475934,-6539.852206689383,-6516.360523266855,-6574.676224550752,-125800.24460557039,-147008.18324186603,-125154.81563267895,-146315.97206782963
-6483.101127517358,-6534.979526398126,-6512.5830784539085,-6571.546980327008,-125798.83644566972,-147007.11035813217,-125154.72622570113,-146316.41910271873
-6495.059310800947,-6544.233148602623,-6519.825043657428,-6577.537247841031,-125803.93264340553,-147011.35718957867,-125157.36373154685,-146317.89431785277
-6500.066101558937,-6547.429448059732,-6521.6802384472185,-6578.54307634152,-125804.46908527245,-147011.35718957867,-125156.11203385735,-146315.90501259625
-6488.532601419998,-6538.466398533154,-6514.617087199341,-6572.619864060863,-125800.69164045951,-147008.36205582166,-125154.65917046777,-146315.54738468496
-6482.162354250236,-6534.174863597735,-6511.9348778647045,-6570.898779737804,-125801.07162011524,-147009.45729129997,-125157.07315886894,-146318.788387631
-6490.164278765235,-6539.852206689383,-6515.935840122204,-6573.8045065169945,-125803.59736723869,-147011.22307911195,-125157.52019375804,-146318.25194576406
-6497.249781757568,-6544.434314302721,-6518.774511668028,-6575.525590840053,-125804.46908527245,-147011.4018930676,-125156.15673734627,-146315.8379573629
-6488.197325253168,-6537.48292177712,-6513.1642238097465,-6570.831724504438,-125801.49630325989,-147009.0996633887,-125154.92739140123,-146315.41327421824
-6477.669653614718,-6529.615107728852,-6507.352770251367,-6566.137858168824,-125799.21642532546,-147007.57974476574,-125155.15090884578,-146316.79908237446
-6484.397528695766,-6534.688953720207,-6511.264325531045,-6569.289454137022,-125802.27861431583,-147010.1501953781,-125156.87199316884,-146317.80491087495
-6494.008778811548,-6541.43918054571,-6515.846433144383,-6572.597512316408,-125804.62554748364,-147011.53600353433,-125156.42495827973,-146316.12853004082
-6489.538429920487,-6538.131122366324,-6513.521851721031,-6570.719965782162,-125804.15616085008,-147011.37954132314,-125156.8943449133,-146317.22376551913
-6479.457793171143,-6531.112674607358,-6508.760930152051,-6567.344852369411,-125803.26209107187,-147011.53600353433,-125158.97305714764,-146320.64358242077
-6483.145831006269,-6533.861939175361,-6510.90669761976,-6569.1106401813795,-125805.3408033062,-147013.34649483522,-125160.31416181495,-146321.67176266573
-6492.041825299481,-6539.606337500374,-6514.415921499243,-6571.167000671268,-125806.25722482888,-147013.25708785738,-125158.2354495806,-146318.16253878624
-6486.967979308126,-6535.024229887036,-6510.14673830828,-6566.897817480304,-125802.88211141613,-147010.06078840027,-125155.15090884578,-146315.21210851814
-6473.892208801772,-6525.189462326702,-6502.614200426841,-6560.907549966282,-125799.48464625892,-147007.69150348802,-125154.72622570113,-146316.284992252
-6475.345072191367,-6526.8434914163945,-6504.178822538713,-6562.427468589243,-125801.85393117118,-147010.01608491136,-125157.11786235785,-146318.788387631
-6485.157488007247,-6533.347849052889,-6508.403302240766,-6565.1767331572455,-125803.46325677197,-147010.5525267783,-125155.73205420162,-146315.8379573629
-6484.486935673587,-6532.1855583412125,-6506.972790595626,-6563.410945345277,-125802.03274512682,-147008.96555292196,-125153.87685941183,-146313.66983815073
-6471.209999467135,-6522.216680314145,-6499.23908701409,-6557.219512131156,-125798.34470729169,-147006.3503988207,-125153.1392518448,-146314.45214920666
-6470.427688411199,-6522.171976825235,-6499.797880625472,-6558.20298888719,-125800.57988173723,-147008.83144245524,-125156.26849606854,-146317.89431785277
-6483.749328106562,-6532.431427530221,-6507.866860373839,-6564.796753501506,-125806.1454661066,-147013.50295704638,-125159.08481586991,-146319.41423647574
-6486.967979308126,-6534.398381042288,-6508.984447596604,-6565.288491879523,-125806.43603878452,-147013.39119832413,-125158.12369085834,-146317.80491087495
-6475.546237891464,-6525.882366404816,-6502.614200426841,-6560.259349377078,-125803.75382944988,-147011.58070702324,-125158.01193213605,-146318.9895533311
-6470.315929688923,-6522.216680314145,-6500.1331567923025,-6558.471209820654,-125803.75382944988,-147012.09479714572,-125159.57655424793,-146321.31413475444
-6479.100165259858,-6528.162244339257,-6504.268229516534,-6561.287529622023,-125805.76548645085,-147013.21238436847,-125159.17422284774,-146319.77186438703
-6483.592865895375,-6530.799750184983,-6505.43052022821,-6561.578102299942,-125805.45256202848,-147012.2512593569,-125157.00610363558,-146316.6873236522
-6474.8980373022605,-6524.72007569314,-6501.116633548336,-6558.359451098377,-125804.31262306127,-147011.78187272334,-125157.96722864715,-146318.74368414207
-6468.058403498937,-6520.04856110198,-6498.076796302414,-6556.39249758631,-125804.46908527245,-147012.60888726817,-125160.38121704833,-146322.00703883255
-6477.356729192345,-6527.178767583224,-6503.821194627428,-6561.10871566638,-125808.7382684634,-147016.20751812548,-125162.70579847167,-146323.39284698878
-6484.978674051604,-6532.207910085668,-6507.017494084536,-6563.098020922902,-125809.81115219728,-147016.52044254786,-125161.29763857099,-146320.91180335425
-6476.417955925222,-6525.547090237987,-6501.586020181897,-6558.493561565109,-125806.74896320689,-147014.12880589115,-125159.86712692585,-146320.2412510206
-6467.99134826557,-6519.869747146338,-6497.875630602316,-6556.1913318862125,-125806.83837018472,-147015.0005239249,-125162.6387432383,-146324.17515804473
-6471.880551800794,-6522.350790780877,-6499.261438758545,-6556.861884219871,-125807.57597775174,-147015.22404136945,-125162.03524613801,-146322.94581209967
-6479.323682704411,-6526.888194905305,-6501.675427159718,-6557.912416209271,-125807.55362600728,-147014.12880589115,-125159.12951935883,-146318.81073937545
-6473.0204907680145,-6521.590831469397,-6497.138023035291,-6553.799695229494,-125804.53614050582,-147011.49130004543,-125157.07315886894,-146317.11200679684
-6461.665804584719,-6513.275982532023,-6491.147755521269,-6549.239939360612,-125802.41272478257,-147010.48547154493,-125158.07898736943,-146319.34718124237
-6465.666766842219,-6516.539337222498,-6494.008778811548,-6551.810389972972,-125805.36315505067,-147013.23473611294,-125160.40356879278,-146321.38118998782
-6475.501534402554,-6523.200157070179,-6498.367368980333,-6554.58200628543,-125807.06188762927,-147013.83823321323,-125158.9954088921,-146318.52016669753
-6472.864028556827,-6520.897927391283,-6496.154546279257,-6552.547997539998,-125805.58667249522,-147012.40772156807,-125157.56489724695,-146317.35787598585
-6460.838790039872,-6512.024284842526,-6489.717243876129,-6547.697668993195,-125803.26209107187,-147011.02191341185,-125158.21309783615,-146319.36953298684
-6459.698851072651,-6511.107863319858,-6488.912581075738,-6546.870654448349,-125803.35149804968,-147011.29013434533,-125158.70483621418,-146319.95067834266
-6472.126420989803,-6520.316782035445,-6495.819270112428,-6552.346831839899,-125807.6430329851,-147014.59819252472,-125160.11299611485,-146319.92832659822
-6472.394641923266,-6520.070912846436,-6495.104014289858,-6551.2962998505,-125806.68190797353,-147013.41355006857,-125158.4366152807,-146317.91666959724
-6459.117705716813,-6509.8785173748165,-6487.124441519313,-6544.76959046955,-125802.68094571603,-147010.30665758927,-125157.27432456904,-146318.1848905307
-6453.797990536451,-6505.43052022821,-6483.481107173098,-6541.617994501352,-125800.91515790406,-147008.92084943305,-125156.536717002,-146317.82726261942
-6461.33052841789,-6510.14673830828,-6486.0515577854585,-6542.757933468572,-125800.91515790406,-147008.00442791037,-125153.85450766738,-146313.9380590842
-6462.023432496004,-6509.47618597462,-6484.397528695766,-6540.232186345123,-125798.23294856942,-147004.78577670883,-125149.69708319868,-146309.1324340263
-6451.339298646367,-6501.697778904174,-6478.47431641511,-6535.806540942972,-125795.97542237943,-147003.37761680814,-125149.96530413214,-146310.60764916035
-6446.9583567331265,-6498.993217825082,-6477.155563492247,-6535.404209542777,-125797.36123053567,-147005.27751508684,-125152.96043788917,-146314.36274222884
-6458.357746405333,-6507.844508629383,-6484.3304734624,-6541.327421823433,-125802.56918699374,-147009.74786397791,-125155.8885164128,-146316.10617829635
-6464.325662174901,-6511.756063909062,-6486.632703141297,-6542.601471257386,-125803.1950358385,-147009.63610525563,-125154.4356530232,-146313.71454163964
-6453.954452747638,-6503.66473241624,-6480.217752482624,-6537.125293865835,-125799.61875672564,-147006.77508196534,-125153.09454835589,-146313.3345619839
-6446.980708477582,-6499.015569569537,-6477.356729192345,-6535.404209542777,-125800.02108812584,-147007.93737267703,-125155.73205420162,-146317.02259981903
-6456.547255104453,-6506.52575570652,-6483.458755428643,-6540.701572978684,-125804.80436143928,-147012.13950063463,-125158.794243192,-146319.2354225201
-6465.510304631031,-6512.784244154006,-6487.7502903640625,-6543.786113713517,-125806.92777716253,-147013.41355006857,-125158.34720830289,-146317.64844866376
-6458.916540016716,-6507.911563862749,-6483.9951972955705,-6540.790979956506,-125805.36315505067,-147012.31831459026,-125158.16839434725,-146318.11783529734
-6448.925310245194,-6500.7813573815065,-6479.033110026492,-6537.2370525881115,-125804.17851259453,-147012.0500936568,-125159.75536820358,-146320.8894516098
-6454.289728914468,-6504.827023127917,-6482.251761228056,-6539.852206689383,-125806.81601844025,-147014.26291635787,-125161.3423420599,-146321.82822487692
-6463.655109841241,-6511.219622042135,-6486.409185696743,-6542.377953812833,-125808.38064055213,-147014.73230299144,-125159.86712692585,-146319.14601554227
-6459.452981883644,-6507.777453396017,-6483.57051415092,-6540.00866890057,-125806.95012890699,-147013.54766053532,-125159.01776063655,-146318.788387631
-6448.031240466981,-6499.596714925375,-6477.75906059254,-6535.560671753964,-125804.8937684171,-147012.58653552373,-125160.0906443704,-146321.0906173099
-6449.886435256772,-6501.027226570514,-6478.85429607085,-6536.432389787721,-125806.32428006224,-147013.81588146876,-125161.18587984871,-146321.9399835992
-6458.670670827708,-6506.503403962065,-6481.983540294593,-6538.15347411078,-125806.77131495134,-147013.21238436847,-125158.72718795863,-146318.02842831952
-6456.7037173156405,-6504.670560916729,-6480.038938526981,-6536.208872343168,-125805.2960998173,-147011.64776225662,-125157.09551061339,-146316.4414544632
-6446.712487544119,-6497.942685835682,-6475.61329312483,-6533.325497308433,-125804.84906492819,-147012.2512593569,-125159.6883129702,-146320.44241672067
-6445.147865432247,-6496.758043379551,-6474.763926835529,-6532.632593230319,-125805.07258237274,-147012.74299773492,-125160.3365135594,-146321.31413475444
-6455.720240559607,-6504.0670638164365,-6479.882476315794,-6536.231224087624,-125807.59832949619,-147014.32997159124,-125159.91183041476,-146319.48129170912
-6455.966109748615,-6503.552973693964,-6478.6531303707525,-6534.577194997931,-125805.92194866204,-147012.31831459026,-125157.43078678023,-146316.53086144102
-6442.823284008895,-6493.517040433531,-6470.874723300305,-6528.184596083713,-125801.92098640454,-147009.27847734434,-125156.290847813,-146316.6873236522
-6439.850501996339,-6491.751252621562,-6469.913598288727,-6527.782264683517,-125803.01622188285,-147010.75369247838,-125158.57072574744,-146319.36953298684
-6449.908787001227,-6498.970866080626,-6475.076851257903,-6531.537357752009,-125805.81018993977,-147012.58653552373,-125158.70483621418,-146318.29664925297
-6456.234330682079,-6503.709435905152,-6478.675482115207,-6534.353677553378,-125808.26888182985,-147014.32997159124,-125159.4424437812,-146318.40840797525
-6446.287804399468,-6496.422767212721,-6473.378118679299,-6530.263308318056,-125806.30192831779,-147013.27943960184,-125159.97888564813,-146320.12949229832
-6440.61046130782,-6492.533563677498,-6470.919426789216,-6528.631630972819,-125806.54779750679,-147014.28526810234,-125162.28111532702,-146323.16932954424
-6448.902958500738,-6498.434424213699,-6475.009796024537,-6531.7161717076515,-125808.82767544124,-147015.80518672528,-125162.48228102711,-146322.16350104375
-6455.653185326241,-6502.86006961585,-6477.915522803727,-6533.43725603071,-125809.72174521945,-147015.96164893647,-125161.0964728709,-146319.79421613147
-6446.0195834660035,-6495.439290456688,-6471.992310523071,-6528.497520506087,-125806.61485274015,-147013.50295704638,-125159.8447751814,-146319.54834694247
-6436.60949905032,-6488.554953164453,-6466.896112787261,-6524.630668715319,-125804.96082365047,-147012.56418377926,-125160.64943798179,-146321.38118998782
-6443.4938363425545,-6493.628799155807,-6470.628854111297,-6527.536395494509,-125807.48657077392,-147014.57584078025,-125161.65526648228,-146321.49294871007
-6452.211016680124,-6499.574363180919,-6474.562761135431,-6530.19625308469,-125808.98413765243,-147015.33580009174,-125160.58238274841,-146319.1907190312
-6444.119685187303,-6492.958246822149,-6469.04188025497,-6525.234165815612,-125805.36315505067,-147012.20655586798,-125158.2354495806,-146317.4919864526
-6433.480254826576,-6485.179839751701,-6463.476295885599,-6521.121444835836,-125803.75382944988,-147011.37954132314,-125159.33068505893,-146319.97303008713
-6438.285879884467,-6488.8678775868275,-6466.426726153699,-6523.557784981464,-125806.36898355115,-147013.63706751313,-125160.98471414861,-146321.1353207988
-6448.388868378266,-6495.752214879062,-6471.18764772268,-6526.798787927483,-125808.4476957855,-147014.82170996926,-125160.13534785931,-146318.92249809773
-6443.806760764928,-6491.840659599383,-6467.723127332107,-6523.62484021483,-125806.21252133997,-147012.67594250155,-125158.36956004734,-146317.44728296367
-6429.903975713727,-6481.134174005291,-6459.274167928001,-6516.785206411506,-125801.85393117118,-147009.21142211097,-125156.96140014665,-146317.44728296367
-6432.474426326087,-6483.391700195277,-6461.464638884621,-6518.774511668028,-125804.4914370169,-147011.78187272334,-125159.46479552565,-146319.79421613147
-6443.203263664635,-6490.946589821171,-6466.7396505760735,-6522.507252992064,-125806.92777716253,-147013.27943960184,-125158.97305714764,-146317.84961436386
-6441.75040027504,-6489.292560731478,-6464.996214508559,-6520.585002968908,-125805.31845156175,-147011.71481748996,-125157.11786235785,-146315.99441957407
-6427.847615223839,-6478.563723392931,-6456.614310337819,-6513.723017421129,-125800.91515790406,-147008.31735233276,-125155.77675769053,-146316.01677131854
-6424.98659193356,-6476.239141969579,-6454.80381903694,-6512.203098798168,-125800.51282650387,-147008.0491313993,-125155.97792339063,-146316.4861579521
-6436.900071728239,-6485.04572928497,-6461.397583651255,-6517.366351767344,-125804.692602717,-147011.15602387858,-125157.16256584675,-146316.39675097427
-6440.230481652079,-6487.504421175054,-6463.073964485403,-6518.57334596793,-125805.69843121749,-147011.82657621225,-125157.16256584675,-146315.8379573629
-6428.27229836849,-6478.51901990402,-6456.234330682079,-6513.119520320835,-125802.56918699374,-147009.56905002226,-125156.7378827021,-146316.82143411893
-6424.1819291331685,-6475.747403591562,-6454.46854287011,-6512.00193309807,-125802.90446316058,-147010.41841631156,-125158.52602225853,-146319.1907190312
-6434.307269371423,-6483.034072283992,-6459.743554561563,-6516.00289535557,-125806.03370738433,-147012.69829424602,-125159.19657459219,-146318.56487018644
-6439.649336296241,-6486.632703141297,-6462.13519121828,-6517.43340700071,-125807.01718414035,-147013.1006256462,-125158.50367051408,-146316.91084109675
-6429.948679202638,-6479.591903637875,-6456.904883015738,-6513.499499976576,-125805.00552713938,-147011.91598319006,-125158.77189144754,-146318.36370448634
-6422.751417488029,-6474.540409390976,-6453.3733073918,-6510.8843458753045,-125804.37967829463,-147011.96068667897,-125160.22475483714,-146320.64358242077
-6429.568699546898,-6478.988406537582,-6456.256682426534,-6512.560726709453,-125805.5419690063,-147012.47477680145,-125159.28598157,-146318.74368414207
-6436.520092072498,-6483.5258106620095,-6459.073002227903,-6514.214755799146,-125806.32428006224,-147012.45242505698,-125157.7437112026,-146316.17323352973
-6428.182891390668,-6477.110860003336,-6454.08856321437,-6510.303200519467,-125804.02205038334,-147010.75369247838,-125157.16256584675,-146316.46380620764
-6418.728103486073,-6470.315929688923,-6449.215882923113,-6506.637514428797,-125802.68094571603,-147010.26195410037,-125158.25780132507,-146318.92249809773
-6425.523033800488,-6475.501534402554,-6453.306252158434,-6509.900869119271,-125805.69843121749,-147012.83240471274,-125159.91183041476,-146319.74951264256
-6434.9778217050825,-6482.207057739146,-6457.843656282861,-6513.119520320835,-125807.77714345184,-147014.03939891333,-125159.42009203674,-146317.84961436386
-6428.540519301953,-6476.9543977921485,-6453.552121347442,-6509.409130741255,-125805.31845156175,-147011.87127970115,-125157.85546992488,-146316.9331928412
-6416.425873807178,-6467.90194128775,-6446.690135799663,-6503.977656838615,-125802.30096606028,-147009.85962270017,-125157.69900771369,-146318.20724227515
-6420.292725597946,-6470.830019811395,-6448.970013734104,-6505.899906861771,-125804.35732655018,-147011.69246574552,-125159.19657459219,-146319.1907190312
-6430.999211192037,-6478.295502459468,-6454.267377170012,-6509.677351674718,-125807.01718414035,-147013.32414309075,-125158.8389466809,-146317.44728296367
-6426.372400089789,-6474.182781479691,-6450.400525379244,-6506.101072561869,-125804.2455678279,-147010.53017503384,-125156.290847813,-146315.14505328477
-6412.626077249775,-6463.766868563517,-6442.353897375334,-6499.484956203099,-125800.22225382594,-147007.44563429902,-125155.30737105697,-146315.48032945162
-6413.721312728085,-6464.772697064006,-6443.359725875822,-6500.401377725766,-125801.89863466009,-147009.21142211097,-125157.07315886894,-146317.24611726357
-6426.171234389692,-6474.003967524049,-6450.355821890334,-6505.944610350682,-125806.10076261769,-147012.49712854592,-125158.36956004734,-146317.02259981903
-6426.282993111968,-6473.71339484613,-6449.797028278951,-6505.117595805836,-125805.5419690063,-147011.80422446778,-125157.25197282458,-146315.8826608518
-6415.12947262877,-6465.845580797861,-6444.164388676213,-6501.04957831497,-125803.97734689443,-147011.15602387858,-125158.61542923635,-146318.56487018644
-6411.329676071367,-6462.716336574118,-6441.6162898083085,-6498.859107358349,-125803.01622188285,-147010.41841631156,-125158.57072574744,-146318.788387631
-6423.824301221884,-6472.037014011981,-6448.746496289551,-6504.670560916729,-125807.62068124065,-147014.24056461343,-125160.47062402614,-146319.1907190312
-6424.696019255641,-6471.858200056338,-6447.56185383342,-6502.994180082582,-125805.76548645085,-147011.96068667897,-125157.27432456904,-146315.52503294052
-6413.587202261353,-6463.699813330151,-6441.549234574943,-6498.300313746967,-125803.37384979414,-147010.37371282265,-125157.52019375804,-146317.17906203022
-6409.139205114747,-6460.7493830620515,-6439.850501996339,-6497.361540479844,-125803.97734689443,-147011.49130004543,-125159.6883129702,-146319.90597485375
-6419.51041454201,-6468.460734899132,-6445.661955554719,-6501.831889370906,-125807.79949519629,-147014.48643380243,-125160.87295542634,-146319.97303008713
-6424.3160395999,-6471.321758189411,-6447.18187417768,-6502.3683312378325,-125807.66538472955,-147013.74882623542,-125158.8389466809,-146317.15671028575
-6412.134338871759,-6461.576397606897,-6439.135246173769,-6495.6181044123305,-125802.7927044383,-147009.59140176672,-125156.26849606854,-146315.56973642943
-6404.914725412694,-6456.726069060096,-6435.782484505473,-6493.3829299668,-125802.52448350484,-147010.03843665583,-125158.2354495806,-146318.56487018644
-6413.3636848168,-6462.939854018671,-6440.476350841088,-6496.959209079649,-125805.65372772858,-147012.58653552373,-125159.4871472701,-146318.74368414207
-6419.108083141814,-6466.225560453601,-6441.973917719593,-6497.070967801925,-125804.91612016155,-147010.9995616674,-125156.290847813,-146314.42979746222
-6412.357856316311,-6461.241121440068,-6438.330583373378,-6494.299351489467,-125803.59736723869,-147010.37371282265,-125156.60377223538,-146315.65914340725
-6402.83601317835,-6454.557949847931,-6433.592013548853,-6490.968941565627,-125802.56918699374,-147010.17254712255,-125158.2354495806,-146318.3860562308
-6409.228612092568,-6459.408278394732,-6437.481217084077,-6494.165241022735,-125805.72078296194,-147012.83240471274,-125160.06829262595,-146319.61540217584
-6419.935097686661,-6467.18668546518,-6443.203263664635,-6498.367368980333,-125808.85002718569,-147014.95582043598,-125160.2918100705,-146318.63192541982
-6415.464748795599,-6463.766868563517,-6440.476350841088,-6496.132194534802,-125807.66538472955,-147014.15115763558,-125160.06829262595,-146318.90014635326
-6402.0537021224145,-6453.440362625166,-6432.429722837177,-6489.627836898308,-125803.59736723869,-147010.97720992294,-125158.90600191428,-146319.07896030892
-6405.250001579524,-6455.854351026339,-6434.374324604789,-6491.23716249909,-125805.58667249522,-147012.83240471274,-125160.47062402614,-146320.2412510206
-6415.375341817778,-6462.85044704085,-6439.068190940403,-6494.500517189565,-125807.441867285,-147013.74882623542,-125159.4424437812,-146317.80491087495
-6413.587202261353,-6461.285824928978,-6437.570624061897,-6493.159412522246,-125806.77131495134,-147013.05592215728,-125158.74953970309,-146317.26846900804
-6403.6406759787415,-6454.580301592387,-6433.189682148658,-6490.410147954243,-125806.50309401788,-147013.77117797986,-125161.52115601554,-146321.40354173226
-6404.445338779133,-6455.452019626144,-6434.240214138057,-6491.527735177009,-125808.40299229659,-147015.73813149193,-125163.73397871661,-146323.59401268887
-6413.69896098363,-6461.3752319068,-6437.905900228728,-6493.695854389174,-125809.38646905262,-147015.71577974746,-125161.67761822673,-146320.21889927614
-6410.9720481600825,-6458.1118772163245,-6434.284917626967,-6489.672540387219,-125805.5419690063,-147011.67011400106,-125157.11786235785,-146315.4356259627
-6400.310266054901,-6450.668746312707,-6429.0546094244255,-6485.8727438298165,-125804.20086433899,-147011.33483783423,-125158.70483621418,-146318.3413527419
-6397.337484042345,-6448.522978844998,-6427.668801268197,-6484.9339705626935,-125804.53614050582,-147012.0500936568,-125159.97888564813,-146320.12949229832
-6406.546402757932,-6454.89322601476,-6431.781522247973,-6487.7502903640625,-125806.27957657333,-147012.76534947936,-125158.95070540319,-146317.89431785277
-6409.161556859202,-6456.211978937624,-6431.915632714705,-6487.258551986045,-125805.47491377294,-147011.37954132314,-125156.78258619102,-146314.96623932914
-6399.304437554412,-6449.059420711926,-6426.84178672335,-6483.548162406464,-125803.91029166107,-147010.68663724503,-125157.90017341379,-146317.17906203022
-6394.521164240977,-6446.108990443825,-6425.232461122569,-6482.676444372707,-125804.78200969483,-147012.20655586798,-125160.4929757706,-146320.59887893187
-6403.4618620230995,-6452.3227754024,-6429.658106524719,-6485.962150807638,-125807.10659111818,-147013.83823321323,-125160.58238274841,-146319.52599519803
-6408.222783592079,-6455.072039970403,-6430.9321559586715,-6486.09626127437,-125806.61485274015,-147012.76534947936,-125157.96722864715,-146316.06147480744
-6396.465766008588,-6445.572548576898,-6423.131397143769,-6479.368386193322,-125801.67511721553,-147008.56322152176,-125155.10620535687,-146314.20628001765
-6388.396786260222,-6439.917557229705,-6419.242193608546,-6476.552066391953,-125800.98221313742,-147008.67498024405,-125156.71553095765,-146316.84378586337
-6396.622228219775,-6446.287804399468,-6424.092522155348,-6480.418918182721,-125804.58084399473,-147011.53600353433,-125158.52602225853,-146317.64844866376
-6406.45699578011,-6453.328603902889,-6429.345182102345,-6484.397528695766,-125807.59832949619,-147013.61471576866,-125158.95070540319,-146316.8884893523
-6400.109100354803,-6448.6570893117305,-6425.835958222861,-6481.692967616674,-125806.32428006224,-147012.83240471274,-125159.10716761438,-146317.89431785277
-6387.949751371116,-6439.336411873867,-6418.616344763797,-6475.769755336018,-125802.7927044383,-147010.06078840027,-125158.34720830289,-146318.25194576406
-6390.341388027834,-6440.342240374356,-6418.728103486073,-6475.210961724635,-125802.21155908247,-147009.0996633887,-125156.58142049093,-146315.8826608518
-6399.684417210152,-6446.578377077387,-6422.79612097694,-6477.8931710592715,-125803.6420707276,-147009.74786397791,-125155.15090884578,-146313.17809977272
-6394.543515985431,-6442.353897375334,-6419.219841864091,-6474.674519857707,-125801.42924802653,-147007.66915174355,-125153.69804545619,-146312.0828642944
-6384.753451914007,-6435.782484505473,-6414.995362162038,-6471.858200056338,-125801.11632360416,-147008.40675931057,-125156.290847813,-146316.15088178526
-6387.636826948742,-6438.218824651101,-6417.118777885292,-6473.623987868308,-125803.37384979414,-147010.59723026722,-125158.2354495806,-146317.87196610833
-6397.784518931451,-6445.125513687792,-6421.678533754174,-6476.753232092051,-125805.20669283948,-147011.49130004543,-125157.11786235785,-146315.2344602626
-6394.744681685529,-6441.996269464049,-6418.593993019342,-6473.691043101674,-125802.70329746048,-147008.83144245524,-125154.4356530232,-146312.59695441686
-6383.144126313225,-6433.524958315487,-6412.424911549677,-6469.198342466158,-125800.66928871504,-147007.73620697693,-125155.35207454588,-146315.01094281804
-6381.132469312248,-6431.848577481339,-6411.12851037127,-6468.080755243392,-125800.44577127049,-147007.64679999911,-125155.59794373489,-146315.3909224738
-6390.967236872582,-6438.6211560512975,-6415.710617984608,-6471.053537255948,-125802.05509687128,-147008.40675931057,-125154.50270825658,-146312.77576837252
-6393.515335740488,-6440.364592118811,-6416.761149974007,-6471.746441334062,-125802.83740792722,-147008.85379419968,-125154.32389430093,-146312.26167825004
-6382.853553635306,-6432.69794377064,-6411.396731304733,-6467.790182565473,-125801.25043407088,-147008.22794535494,-125155.55324024598,-146314.89918409576
-6378.696129166619,-6429.591051291353,-6409.228612092568,-6466.180856964691,-125800.98221313742,-147008.33970407723,-125156.58142049093,-146316.37439922983
-6387.458012993099,-6435.536615316465,-6413.095463883336,-6468.639548854774,-125802.61389048267,-147009.03260815534,-125155.4414815237,-146314.04981780646
-6392.353045028812,-6438.9117287292165,-6415.330638328867,-6470.070060499914,-125803.66442247207,-147009.59140176672,-125154.90503965678,-146312.79812011696
-6382.674739679664,-6431.93798445916,-6410.301495826423,-6466.382022664789,-125801.85393117118,-147008.78673896633,-125155.77675769053,-146314.7874253735
-6376.684472165642,-6427.802911734929,-6407.529879513965,-6464.61623485282,-125801.80922768227,-147009.41258781106,-125157.5872489914,-146317.40257947476
-6386.854515892806,-6435.491911827554,-6413.520147027987,-6469.399508166255,-125806.01135563987,-147012.81005296827,-125159.50949901456,-146318.25194576406
-6392.531858984454,-6438.9117287292165,-6415.330638328867,-6469.980653522093,-125805.89959691759,-147012.02774191234,-125157.25197282458,-146315.07799805142
-6381.713614668085,-6430.395714091745,-6408.401597547722,-6464.057441241436,-125801.67511721553,-147008.4514627995,-125154.97209489014,-146313.71454163964
-6371.677681407653,-6422.79612097694,-6402.74660620053,-6459.609444094831,-125799.30583230327,-147006.81978545425,-125154.94974314568,-146314.85448060685
-6378.852591377806,-6428.071132668392,-6406.725216713574,-6462.649281340752,-125802.1445038491,-147008.94320117752,-125156.11203385735,-146315.21210851814
-6386.765108914985,-6433.189682148658,-6409.832109192862,-6464.437420897177,-125802.92681490503,-147008.8984976886,-125154.25683906757,-146312.1946230167
-6380.573675700864,-6428.428760579677,-6406.166423102191,-6461.531694117987,-125801.25043407088,-147007.6020965102,-125153.92156290074,-146312.39578871676
-6370.314224995879,-6421.142091887247,-6400.958466644105,-6457.821304538406,-125799.90932940357,-147007.17741336554,-125155.2850193125,-146315.10034979586
-6377.8691146217725,-6427.624097779286,-6406.546402757932,-6462.872798785305,-125805.13963760612,-147012.11714889016,-125159.62125773684,-146319.01190507555
-6387.033329848448,-6433.770827504495,-6410.4132545487,-6465.264435442024,-125806.32428006224,-147012.34066633473,-125157.9448769027,-146315.793253874
-6382.7417949130295,-6430.172196647191,-6407.328713813868,-6462.47046738511,-125804.26791957235,-147010.57487852275,-125156.40260653528,-146314.60861141785
-6370.805963373896,-6421.231498865069,-6400.667893966186,-6457.3742696493,-125801.7421724489,-147009.05495989977,-125156.7378827021,-146316.4861579521
-6371.297701751912,-6421.410312820711,-6400.734949199552,-6457.150752204747,-125802.23391082692,-147009.36788432216,-125157.1402141023,-146316.57556492992
-6381.8030216459065,-6428.719333257596,-6405.741739957541,-6460.70467957314,-125804.35732655018,-147010.48547154493,-125156.38025479083,-146314.3850939733
-6380.350158256311,-6427.154711145725,-6404.043007378938,-6458.961243505627,-125802.94916664949,-147008.96555292196,-125154.70387395668,-146312.59695441686
-6366.849704605306,-6416.828205207373,-6396.175193330669,-6452.635699824775,-125798.94820439199,-147006.05982614277,-125153.80980417847,-146313.06634105043
-6365.039213304426,-6415.442397051143,-6395.258771808001,-6452.076906213392,-125799.32818404773,-147006.66332324306,-125154.68152221222,-146314.29568699547
-6375.745698898519,-6422.9525831881265,-6400.556135243909,-6455.8767027707945,-125801.92098640454,-147008.36205582166,-125154.3909495343,-146312.66400965024
-6377.824411132862,-6424.159577388714,-6401.025521877471,-6455.787295792973,-125801.85393117118,-147007.91502093256,-125153.31806580044,-146311.00998056054
-6368.459030206088,-6417.834033707862,-6396.845745664328,-6453.082734713881,-125801.31748930425,-147008.4514627995,-125155.57559199043,-146314.72037014013
-6365.1286202822475,-6415.956487173616,-6395.862268908295,-6452.792162035962,-125802.50213176038,-147010.10549188918,-125158.05663562498,-146317.80491087495
-6374.941036098127,-6422.863176210306,-6400.824356177373,-6456.457848126633,-125805.18434109502,-147011.89363144562,-125158.28015306953,-146316.62026841883
-6378.718480911074,-6424.8301297223725,-6401.517260255488,-6456.27903417099,-125804.46908527245,-147010.64193375612,-125155.8438129239,-146313.51337593954
-6367.4532017056,-6416.224708107079,-6394.767033429985,-6450.758153290529,-125800.98221313742,-147007.8032622103,-125154.61446697885,-146313.55807942845
-6359.451277190599,-6410.390902804244,-6390.4084432612,-6447.405391622233,-125799.50699800337,-147006.953895921,-125155.17326059024,-146314.96623932914
-6369.666024406675,-6418.124606385781,-6396.7116351975965,-6452.434534124677,-125803.93264340553,-147010.68663724503,-125157.52019375804,-146316.2402887631
-6377.645597177219,-6423.801949477429,-6400.444376521633,-6455.027336481493,-125805.72078296194,-147011.69246574552,-125156.96140014665,-146314.65331490675
-6368.146105783714,-6416.358818573812,-6394.476460752066,-6449.9534904901375,-125802.25626257138,-147008.85379419968,-125155.19561233469,-146313.96041082864
-6360.233588246535,-6411.016751648993,-6391.078995594859,-6447.830074766884,-125802.30096606028,-147009.70316048898,-125157.7884146915,-146317.64844866376
-6366.939111583128,-6416.001190662527,-6394.990550874538,-6450.80285677944,-125805.02787888383,-147012.02774191234,-125159.17422284774,-146318.22959401962
-6375.924512854161,-6422.192623876646,-6399.036216620948,-6453.596824836353,-125806.72661146244,-147012.76534947936,-125158.07898736943,-146315.8826608518
-6368.324919739356,-6415.777673217974,-6393.7165014405855,-6448.791199778462,-125803.06092537177,-147009.45729129997,-125155.55324024598,-146313.9380590842
-6356.389088200222,-6406.769920202484,-6386.943922870627,-6443.471484598099,-125800.11049510367,-147007.46798604346,-125155.4861850126,-146315.12270154033
-6358.8477800903065,-6408.267487080991,-6387.860344393295,-6443.918519487205,-125800.73634394842,-147007.82561395474,-125155.32972280143,-146314.56390792894
-6368.92841683965,-6415.330638328867,-6392.710672940097,-6447.159522433224,-125802.70329746048,-147008.87614594414,-125154.3909495343,-146312.2393265056
-6367.095573794315,-6413.944830172638,-6391.615437461786,-6446.265452655012,-125802.56918699374,-147008.8984976886,-125154.5921152344,-146312.6416579058
-6355.7408876110185,-6405.831146935362,-6385.781632158952,-6442.063324697415,-125800.78104743733,-147008.11618663266,-125155.77675769053,-146315.2344602626
-6357.864303334272,-6407.820452191884,-6387.815640904384,-6443.94087123166,-125803.35149804968,-147010.57487852275,-125158.32485655844,-146317.7378556416
-6368.101402294803,-6414.9059551842165,-6392.621265962275,-6447.18187417768,-125805.25139632839,-147011.51365178986,-125157.25197282458,-146315.34621898487
-6368.101402294803,-6414.637734250753,-6391.995417117527,-6446.332507888378,-125804.64789922809,-147010.73134073394,-125156.15673734627,-146314.04981780646
-6355.629128888742,-6405.406463790711,-6384.97696935856,-6440.789275263462,-125801.49630325989,-147008.60792501067,-125156.04497862399,-146315.2344602626
-6354.3997829437,-6404.758263201507,-6384.97696935856,-6441.012792708015,-125803.01622188285,-147010.37371282265,-125158.34720830289,-146317.84961436386
-6365.977986571549,-6413.274277838979,-6391.347216528323,-6445.952528232638,-125806.81601844025,-147013.21238436847,-125159.28598157,-146317.51433819704
-6366.872056349762,-6413.006056905515,-6390.229629305557,-6444.298499142945,-125804.82671318373,-147010.82074771175,-125156.0896821129,-146313.75924512855
-6354.131562010237,-6403.17128934518,-6382.5629809573875,-6437.995307206548,-125800.69164045951,-147007.62444825465,-125154.65917046777,-146313.60278291735
-6351.292890464412,-6401.964295144594,-6382.4065187462,-6438.554100817932,-125802.88211141613,-147010.26195410037,-125158.36956004734,-146317.89431785277
-6361.68645163613,-6409.541536514943,-6388.21797230458,-6442.935042731171,-125806.3913352956,-147012.98886692393,-125159.35303680338,-146317.67080040823
-6368.660195906186,-6414.593030761842,-6391.88365839525,-6445.661955554719,-125808.47004752995,-147014.37467508015,-125159.6436094813,-146317.06730330794
-6357.081992278337,-6405.473519024077,-6384.529934469454,-6439.515225829509,-125804.08910561672,-147010.79839596731,-125157.49784201359,-146316.06147480744
-6347.962480540572,-6398.5891817318425,-6379.210219289091,-6435.290746127456,-125801.78687593782,-147009.18907036653,-125157.3413798024,-146316.8884893523
-6356.54555041141,-6404.959428901605,-6384.038196091437,-6438.956432218127,-125804.91612016155,-147011.69246574552,-125158.57072574744,-146317.1343585413
-6364.614530159775,-6410.45795803761,-6387.659178693197,-6441.482179341577,-125806.36898355115,-147012.38536982363,-125157.69900771369,-146315.07799805142
-6358.870131834761,-6406.591106246842,-6385.044024591926,-6439.694039785152,-125806.25722482888,-147012.76534947936,-125159.12951935883,-146317.31317249694
-6349.057716018881,-6399.617361976786,-6380.104289067303,-6436.073057183392,-125804.84906492819,-147012.11714889016,-125160.31416181495,-146319.68245740922
-6352.835160831829,-6401.807832933407,-6381.288931523434,-6436.676554283686,-125805.13963760612,-147011.87127970115,-125159.28598157,-146317.9837248306
-6361.708803380586,-6407.663989980697,-6385.044024591926,-6439.045839195948,-125806.30192831779,-147012.16185237907,-125157.69900771369,-146315.05564630695
-6356.299681222401,-6403.484213767554,-6381.579504201353,-6436.117760672303,-125804.31262306127,-147010.53017503384,-125156.67082746874,-146314.47450095112
-6345.481436906032,-6395.728158441563,-6376.237437276535,-6432.027391436982,-125802.65859397157,-147009.90432618908,-125157.90017341379,-146317.22376551913
-6350.443524175111,-6399.9973416325265,-6380.014882089482,-6435.357801360822,-125806.36898355115,-147013.39119832413,-125160.96236240416,-146320.01773357604
-6360.121829524259,-6406.613457991298,-6384.217010047079,-6438.308231628923,-125807.8441986852,-147013.97234367995,-125159.57655424793,-146317.20141377466
-6356.92553006715,-6403.595972489831,-6381.333635012345,-6435.648374038741,-125805.69843121749,-147011.93833493453,-125157.5872489914,-146315.27916375152
-6345.369678183756,-6395.236420063547,-6375.432774476144,-6431.155673403225,-125803.68677421652,-147010.86545120066,-125158.52602225853,-146317.7378556416
-6346.576672384343,-6396.644579964231,-6376.863286121284,-6432.69794377064,-125806.07841087323,-147013.23473611294,-125161.07412112644,-146320.26360276504
-6357.64078588972,-6404.378283545767,-6382.45122223511,-6436.676554283686,-125808.78297195233,-147015.02287566935,-125160.87295542634,-146318.67662890872
-6356.6796608781415,-6402.74660620053,-6380.461916978588,-6434.307269371423,-125806.54779750679,-147012.49712854592,-125158.05663562498,-146315.54738468496
-6343.49213164951,-6392.800079917918,-6372.750565141508,-6428.048780923937,-125802.68094571603,-147009.65845700007,-125157.16256584675,-146315.8826608518
-6339.960556025571,-6390.184925816647,-6370.895370351716,-6426.506510556521,-125802.39037303811,-147009.72551223345,-125157.83311818042,-146317.11200679684
-6351.583463142331,-6398.812699176396,-6377.399727988211,-6431.535653058965,-125806.3466318067,-147012.72064599046,-125159.040112381,-146317.06730330794
-6355.8526463332955,-6401.69607421113,-6379.232571033546,-6432.8097024929175,-125807.26305332937,-147013.21238436847,-125158.5930774919,-146315.92736434072
-6344.363849683267,-6393.224763062569,-6372.772916885962,-6427.713504757107,-125804.17851259453,-147011.13367213414,-125158.25780132507,-146316.6873236522
-6338.619451358253,-6389.000283360516,-6370.02365231796,-6425.74655124504,-125803.8432364277,-147011.24543085642,-125159.53185075903,-146318.76603588654
-6347.984832285027,-6395.7728619304735,-6374.896332609217,-6429.41223733571,-125806.72661146244,-147013.23473611294,-125159.97888564813,-146318.1848905307
-6355.718535866563,-6401.427853277666,-6379.009053588993,-6432.541481559454,-125809.07354463024,-147014.88876520263,-125160.26945832605,-146317.51433819704
-6344.028573516438,-6392.196582817624,-6371.476515707554,-6426.104179156325,-125804.42438178354,-147010.97720992294,-125157.76606294705,-146316.01677131854
-6335.870186790251,-6386.385129259244,-6367.319091238867,-6423.109045399314,-125803.41855328305,-147010.79839596731,-125159.06246412545,-146318.3860562308
-6343.045096760404,-6391.369568272778,-6370.917722096172,-6425.724199500585,-125805.60902423967,-147012.34066633473,-125159.35303680338,-146317.71550389714
-6350.756448597485,-6396.465766008588,-6374.136373297736,-6427.601746034831,-125806.43603878452,-147012.36301807917,-125157.60960073586,-146314.87683235132
-6342.799227571396,-6390.274332794468,-6369.084879050837,-6423.310211099411,-125803.59736723869,-147010.01608491136,-125156.3355513019,-146314.27333525103
-6334.596137356298,-6384.865210636283,-6365.799172615907,-6421.3656093318,-125803.99969863889,-147011.26778260086,-125159.53185075903,-146318.69898065316
-6340.541701381409,-6389.514373482987,-6369.598969173309,-6424.539557044453,-125807.0395358848,-147013.92764019105,-125161.3423420599,-146319.97303008713
-6350.264710219469,-6396.175193330669,-6374.136373297736,-6427.624097779286,-125808.8947306746,-147014.82170996926,-125160.31416181495,-146317.64844866376
-6343.581538627332,-6390.296684538924,-6368.97312032856,-6422.863176210306,-125804.98317539493,-147011.29013434533,-125157.22962108013,-146314.9438875847
-6331.042209987904,-6380.886600123239,-6361.820562102862,-6417.163481374202,-125801.78687593782,-147009.05495989977,-125156.9390484022,-146316.06147480744
-6334.126750722737,-6383.322940268868,-6363.966329570571,-6419.063379652904,-125803.97734689443,-147011.2007273675,-125158.88365016981,-146317.7378556416
-6345.123808994747,-6391.257809550501,-6369.621320917764,-6423.131397143769,-125806.72661146244,-147012.94416343502,-125158.6377809808,-146316.17323352973
-6343.067448504859,-6389.179097316158,-6367.632015661242,-6421.164443631702,-125805.25139632839,-147011.35718957867,-125157.05080712448,-146314.5415561845
-6328.807035542373,-6378.114983810781,-6358.758373112485,-6413.989533661549,-125800.46812301494,-147007.6020965102,-125155.32972280143,-146314.22863176212
-6328.650573331186,-6378.383204744245,-6359.07129753486,-6414.548327272932,-125801.92098640454,-147009.23377385543,-125157.07315886894,-146316.15088178526
-6341.525178137444,-6388.039158348937,-6366.559131927387,-6420.471539553588,-125806.54779750679,-147012.96651517946,-125158.90600191428,-146316.4414544632
-6340.742867081508,-6386.429832748156,-6364.368660970767,-6417.9010889412275,-125803.95499514998,-147010.10549188918,-125155.46383326815,-146312.75341662805
-6326.303640163379,-6375.186905287136,-6355.427963188644,-6410.4132545487,-125798.79174218081,-147005.79160520932,-125153.1392518448,-146311.65818114975
-6323.666134317653,-6373.599931430809,-6354.757410854985,-6410.189737104147,-125799.95403289248,-147007.31152383226,-125155.39677803479,-146314.45214920666
-6334.462026889566,-6381.400690245711,-6360.501809179999,-6414.637734250753,-125803.1950358385,-147009.63610525563,-125155.93321990172,-146313.84865210636
-6337.68067809113,-6383.12177456877,-6361.105306280292,-6414.481272039566,-125802.61389048267,-147008.54086977732,-125153.72039720064,-146311.05468404945
-6327.600041341787,-6375.745698898519,-6355.673832377653,-6410.346199315334,-125800.53517824832,-147007.33387557673,-125154.14508034529,-146312.6416579058
-6324.783721540418,-6374.829277375851,-6356.076163777848,-6411.664952238197,-125803.57501549424,-147010.9995616674,-125158.9954088921,-146318.3413527419
-6333.947936767094,-6381.512448967987,-6361.060602791382,-6415.397693562233,-125806.50309401788,-147013.23473611294,-125159.82242343694,-146318.02842831952
-6338.530044380432,-6383.769975157974,-6361.865265591773,-6415.017713906493,-125805.25139632839,-147011.24543085642,-125156.40260653528,-146313.64748640626
-6329.119959964748,-6376.59506518782,-6356.187922500125,-6410.4132545487,-125802.23391082692,-147008.94320117752,-125155.37442629033,-146313.51337593954
-6321.676829061131,-6371.5882744298315,-6353.058678276382,-6408.491004525543,-125802.36802129365,-147009.85962270017,-125157.85546992488,-146317.06730330794
-6328.203538442081,-6376.080975065348,-6356.277329477946,-6410.79323420444,-125804.29027131682,-147011.08896864523,-125158.14604260279,-146316.46380620764
-6335.356096667779,-6380.618379189776,-6358.713669623575,-6411.955524916116,-125804.26791957235,-147010.30665758927,-125155.59794373489,-146312.70871313915
-6329.589346598309,-6376.371547743267,-6355.517370166465,-6409.608591748309,-125803.06092537177,-147009.56905002226,-125155.66499896825,-146313.55807942845
-6317.072369703337,-6366.805001116396,-6348.029535773938,-6403.528917256465,-125799.35053579218,-147006.66332324306,-125154.70387395668,-146313.82630036192
-6320.961573238561,-6369.509562195488,-6350.108248008281,-6404.8700219237835,-125800.78104743733,-147007.8032622103,-125155.17326059024,-146313.781596873
-6331.511596621465,-6377.0421000769265,-6355.495018422011,-6408.64746673673,-125803.28444281632,-147009.45729129997,-125154.8379844234,-146312.06051254994
-6327.667096575153,-6373.890504108728,-6352.9245678096495,-6406.322885313379,-125801.7421724489,-147008.16089012157,-125153.83215592292,-146311.3899602163
-6317.072369703337,-6366.492076694021,-6347.716611351563,-6402.724254456074,-125800.55752999277,-147007.91502093256,-125155.59794373489,-146314.56390792894
-6319.195785426591,-6368.280216250446,-6349.325936952346,-6404.199469590124,-125802.47978001593,-147009.70316048898,-125157.36373154685,-146316.12853004082
-6329.522291364943,-6375.388070987234,-6354.243320732513,-6407.552231258421,-125804.37967829463,-147010.75369247838,-125156.3355513019,-146313.71454163964
-6327.8012070418845,-6373.488172708532,-6352.254015475991,-6405.473519024077,-125802.50213176038,-147008.85379419968,-125154.25683906757,-146311.56877417193
-6316.088892947304,-6365.039213304426,-6346.01787877296,-6400.757300944007,-125800.24460557039,-147007.6020965102,-125154.97209489014,-146313.71454163964
-6315.753616780475,-6365.195675515613,-6346.621375873253,-6401.673722466675,-125802.1445038491,-147009.54669827782,-125157.3413798024,-146316.37439922983
-6325.856605274273,-6372.16941978567,-6351.382297442234,-6404.8700219237835,-125804.02205038334,-147010.5525267783,-125156.44731002419,-146314.04981780646
-6327.309468663868,-6372.683509908141,-6351.203483486591,-6404.154766101214,-125803.1950358385,-147009.45729129997,-125154.56976348994,-146311.70288463865
-6315.843023758295,-6364.301605737402,-6344.8779398057395,-6399.349141043323,-125800.69164045951,-147007.8032622103,-125154.7932809345,-146313.22280326163
-6311.529137078422,-6361.217065002569,-6342.843931060306,-6398.097443353826,-125800.73634394842,-147008.29500058832,-125156.11203385735,-146315.1897567737
-6321.453311616578,-6368.25786450599,-6347.806018329385,-6401.8748881667725,-125803.39620153859,-147009.99373316692,-125156.17908909073,-146314.04981780646
-6326.102474463281,-6371.252998263001,-6349.504750907988,-6402.7019027116185,-125803.68677421652,-147009.54669827782,-125154.70387395668,-146311.74758812756
-6315.39598886919,-6363.2510737480015,-6343.425076416144,-6397.672760209175,-125800.71399220396,-147007.4009308101,-125154.10037685638,-146312.2840299945
-6309.539831821899,-6359.4959806795105,-6341.167550226159,-6396.26460030849,-125801.22808232643,-147008.58557326623,-125156.62612397983,-146315.74855038506
-6317.988791226005,-6365.486248193532,-6345.5261403949435,-6399.50560325451,-125803.59736723869,-147010.41841631156,-125157.00610363558,-146315.05564630695
-6322.190919183603,-6367.319091238867,-6345.660250861675,-6398.566829987387,-125801.56335849327,-147007.62444825465,-125152.6922169557,-146309.6912276377
-6312.378503367723,-6359.630091146242,-6339.4464659031,-6393.314170040389,-125798.00943112487,-147004.60696275317,-125150.88172565482,-146308.8865648373
-6303.05782592986,-6352.790457342918,-6334.5514338673875,-6389.73789092754,-125796.48951250191,-147003.95876216397,-125151.93225764422,-146311.07703579392
-6310.478605089022,-6358.490152179022,-6339.088837991815,-6393.470632251577,-125799.90932940357,-147006.84213719872,-125153.85450766738,-146312.17227127223
-6320.559241838365,-6365.68741389363,-6344.274442705446,-6397.292780553435,-125802.56918699374,-147008.51851803286,-125153.787452434,-146310.87587009382
-6316.982962725516,-6363.563998170376,-6342.910986293672,-6396.532821241954,-125802.94916664949,-147009.34553257772,-125155.32972280143,-146313.06634105043
-6307.81874749884,-6357.30550972289,-6338.865320547262,-6393.872963651773,-125802.5915387382,-147010.06078840027,-125157.92252515824,-146316.95554458565
-6313.116110934748,-6361.574692913854,-6342.598061871298,-6397.158670086703,-125805.83254168423,-147013.1006256462,-125160.4929757706,-146319.01190507555
-6321.162738938659,-6366.492076694021,-6345.190864228113,-6398.320960798378,-125805.78783819532,-147011.96068667897,-125157.31902805794,-146314.5415561845
-6315.865375502751,-6361.68645163613,-6340.675811848141,-6394.029425862959,-125802.1445038491,-147008.49616628842,-125153.9886181341,-146311.47936719412
-6303.527212563421,-6352.54458815391,-6333.992640256005,-6388.8438211493285,-125799.30583230327,-147006.7527302209,-125154.21213557865,-146313.02163756153
-6308.19872715458,-6357.193751000614,-6338.530044380432,-6393.381225273755,-125804.46908527245,-147011.80422446778,-125159.35303680338,-146318.1401870418
-6318.547584837388,-6364.301605737402,-6343.425076416144,-6396.644579964231,-125806.43603878452,-147012.69829424602,-125158.50367051408,-146315.793253874
-6317.094721447793,-6362.44641094761,-6341.324012437345,-6394.431757263155,-125804.26791957235,-147010.39606456712,-125155.91086815725,-146313.02163756153
-6301.537907306899,-6350.108248008281,-6331.221023943547,-6386.0275013479595,-125798.00943112487,-147005.16575636456,-125152.60280997788,-146311.1440910273
-6300.040340428393,-6349.3482886968,-6330.975154754538,-6386.072204836871,-125799.23877706991,-147006.52921277634,-125154.50270825658,-146313.35691372835
-6311.81970975634,-6358.02076554546,-6337.59127111331,-6391.146050828225,-125803.12798060513,-147009.47964304444,-125155.55324024598,-146313.0886927949
-6314.166642924148,-6359.205408001591,-6338.038306002415,-6391.034292105948,-125802.68094571603,-147008.69733198851,-125153.89921115628,-146311.00998056054
-6304.689503275097,-6352.7457538540075,-6333.590308855809,-6387.972103115571,-125801.76452419336,-147008.74203547742,-125155.82146117944,-146314.00511431755
-6300.666189273142,-6350.175303241647,-6332.20450069958,-6387.279199037457,-125802.61389048267,-147010.08314014474,-125158.10133911388,-146316.95554458565
-6309.003389954972,-6355.919701566661,-6336.049000745893,-6389.872001394272,-125803.97734689443,-147010.73134073394,-125157.07315886894,-146314.76507362904
-6316.4688726030445,-6361.485285936033,-6340.25112870349,-6393.045949106926,-125806.52544576234,-147012.65359075708,-125157.76606294705,-146314.56390792894
-6308.042264943393,-6355.517370166465,-6336.116055979259,-6390.050815349915,-125805.45256202848,-147012.29596284582,-125158.97305714764,-146316.84378586337
-6300.040340428393,-6349.616509630265,-6331.8468727882955,-6386.854515892806,-125804.02205038334,-147011.67011400106,-125159.75536820358,-146318.60957367535
-6306.008256197961,-6353.371602698756,-6334.014992000461,-6387.972103115571,-125804.4914370169,-147011.46894830096,-125158.1907460917,-146316.10617829635
-6312.222041156536,-6357.193751000614,-6336.0713524903485,-6388.709710682597,-125804.29027131682,-147010.30665758927,-125155.55324024598,-146312.37343697232
-6303.504860818966,-6350.354117197289,-6330.662230332164,-6384.127603069259,-125801.04926837079,-147007.73620697693,-125153.9886181341,-146311.6805328942
-6293.826555469818,-6343.358021182778,-6325.677791318631,-6380.394861745222,-125799.57405323673,-147007.13270987663,-125155.06150186795,-146313.9380590842
-6300.53207880641,-6348.58832938532,-6329.857567531773,-6383.8593821357945,-125802.7927044383,-147009.81491921126,-125156.8943449133,-146315.05564630695
-6309.62923879972,-6354.9138730661725,-6333.947936767094,-6386.586294959342,-125804.22321608344,-147010.39606456712,-125155.59794373489,-146312.52989918352
-6304.398930597178,-6350.845855575306,-6330.595175098798,-6383.769975157974,-125802.34566954919,-147008.87614594414,-125154.72622570113,-146312.12756778332
-6293.4018723251675,-6342.73217233803,-6324.940183751605,-6379.545495455921,-125800.44577127049,-147007.89266918812,-125155.73205420162,-146314.42979746222
-6295.2794188594125,-6343.715649094063,-6325.5660325963545,-6379.724309411563,-125800.78104743733,-147007.95972442147,-125155.4861850126,-146313.781596873
-6306.187070153603,-6351.561111397876,-6331.131616965726,-6383.6805681801525,-125803.4409050275,-147009.63610525563,-125155.15090884578,-146312.10521603885
-6304.175413152625,-6349.884730563728,-6329.544643109399,-6382.361815257289,-125802.65859397157,-147008.85379419968,-125154.48035651213,-146311.54642242746
-6293.24541011398,-6342.329840937834,-6324.291983162401,-6378.696129166619,-125801.36219279317,-147008.51851803286,-125156.0896821129,-146314.63096316232
-6296.285247359901,-6345.369678183756,-6327.510634363965,-6381.959483857094,-125805.18434109502,-147012.47477680145,-125160.18005134823,-146318.76603588654
-6305.24829688648,-6351.091724764315,-6330.952803010083,-6383.904085624706,-125805.83254168423,-147012.09479714572,-125157.9448769027,-146314.96623932914
-6304.7342067640075,-6350.01884103046,-6329.410532642667,-6382.02653909046,-125803.95499514998,-147010.08314014474,-125155.35207454588,-146312.30638173895
-6291.725491491019,-6340.117018236759,-6321.766236038952,-6375.924512854161,-125800.06579161476,-147007.22211685445,-125154.3909495343,-146312.75341662805
-6289.378558323212,-6338.708858336075,-6321.118035449748,-6375.611588431787,-125801.00456488188,-147008.42911105504,-125156.26849606854,-146314.89918409576
-6301.180279395614,-6347.49309390701,-6327.890614019706,-6380.774841400962,-125805.02787888383,-147011.58070702324,-125157.52019375804,-146314.89918409576
-6304.689503275097,-6349.728268352541,-6329.097608220292,-6381.378338501256,-125805.16198935057,-147011.22307911195,-125156.24614432409,-146313.0886927949
-6292.284285102402,-6340.228776959036,-6321.63212557222,-6375.231608776046,-125801.0939718597,-147008.13853837713,-125154.94974314568,-146312.97693407262
-6288.372729822723,-6337.881843791229,-6320.492186604999,-6374.985739587038,-125802.45742827147,-147010.08314014474,-125157.90017341379,-146316.70967539665
-6298.542773549888,-6345.5261403949435,-6326.236584930013,-6379.545495455921,-125806.05605912878,-147012.76534947936,-125159.10716761438,-146316.6873236522
-6301.984942196005,-6346.867245062262,-6326.191881441103,-6378.494963466521,-125804.20086433899,-147010.19489886702,-125155.19561233469,-146311.85934684984
-6292.083119402304,-6339.334707180823,-6320.15691043817,-6373.666986664175,-125801.13867534861,-147007.91502093256,-125154.23448732312,-146311.90405033875
-6284.327064076312,-6333.947936767094,-6316.424169114133,-6371.007129073993,-125800.35636429267,-147008.02677965484,-125155.82146117944,-146314.49685269556
-6291.904305446662,-6339.424114158644,-6320.559241838365,-6374.136373297736,-125802.83740792722,-147009.92667793354,-125156.55906874646,-146314.31803873993
-6301.157927651158,-6346.129637495236,-6325.342515151801,-6377.735004155041,-125805.3408033062,-147011.42424481205,-125156.38025479083,-146313.0886927949
-6293.200706625069,-6340.117018236759,-6320.447483116089,-6373.599931430809,-125802.54683524929,-147009.0996633887,-125155.08385361242,-146312.59695441686
-6282.8965524311725,-6332.58448035532,-6314.993657468994,-6369.442506962122,-125800.62458522613,-147008.16089012157,-125155.93321990172,-146314.67566665122
-6288.931523434106,-6337.345401924301,-6318.77110228194,-6372.571751185865,-125803.6420707276,-147010.79839596731,-125157.81076643596,-146315.94971608516
-6299.928581706117,-6345.347326439301,-6324.671962818142,-6377.019748332471,-125806.77131495134,-147012.85475645718,-125157.96722864715,-146314.89918409576
-6294.899439203673,-6341.1228467372475,-6321.118035449748,-6373.868152364273,-125804.51378876137,-147010.93250643404,-125156.536717002,-146313.87100385083
-6281.443689041578,-6330.773989054441,-6313.116110934748,-6367.386146472233,-125800.37871603713,-147007.78091046584,-125155.2850193125,-146313.9380590842
-6285.154078621159,-6333.925585022639,-6315.910078991661,-6369.867190106773,-125803.1950358385,-147010.39606456712,-125157.72135945814,-146316.10617829635
-6297.335779349301,-6342.888634549217,-6322.593250583798,-6374.963387842583,-125806.95012890699,-147013.05592215728,-125158.57072574744,-146315.48032945162
-6294.899439203673,-6340.586404870321,-6320.268669160446,-6372.638806419231,-125805.05023062829,-147011.22307911195,-125156.64847572429,-146313.535727684
-6284.058843142849,-6332.897404777695,-6314.993657468994,-6368.97312032856,-125803.59736723869,-147010.86545120066,-125158.2354495806,-146316.62026841883
-6283.209476853547,-6332.338611166312,-6314.703084791075,-6368.7719546284625,-125804.15616085008,-147011.53600353433,-125159.17422284774,-146317.67080040823
-6294.698273503575,-6340.6534601036865,-6320.827462771829,-6373.242303519524,-125807.37481205164,-147013.72647449095,-125159.4424437812,-146316.50850969655
-6297.335779349301,-6342.463951404567,-6322.079160461326,-6374.181076786647,-125808.17947485203,-147014.35232333568,-125159.46479552565,-146316.19558527417
-6285.444651299078,-6333.657364089176,-6315.5300993359215,-6368.995472073016,-125805.27374807284,-147012.36301807917,-125159.37538854784,-146317.55904168595
-6281.376633808212,-6330.773989054441,-6313.406683612667,-6367.475553450055,-125804.91612016155,-147012.31831459026,-125160.35886530386,-146318.94484984217
-6292.15017463567,-6338.5970996137985,-6319.151081937681,-6371.901198852205,-125808.11241961867,-147014.70995124697,-125160.91765891525,-146318.1848905307
-6295.547639792877,-6340.519349636955,-6319.955744738072,-6371.990605830027,-125807.68773647402,-147013.70412274648,-125158.794243192,-146315.4356259627
-6284.7740989654185,-6332.58448035532,-6313.898421990683,-6367.207332516591,-125804.96082365047,-147011.91598319006,-125158.5930774919,-146316.41910271873
-6278.29209307338,-6327.756503552974,-6310.568012066843,-6364.703937137597,-125804.08910561672,-147011.69246574552,-125159.57655424793,-146318.22959401962
-6286.159907121648,-6333.120922222248,-6314.233698157514,-6367.207332516591,-125805.60902423967,-147012.45242505698,-125158.81659493645,-146316.4414544632
-6295.972322937528,-6340.809922314874,-6320.246317415991,-6372.080012807848,-125809.7440969639,-147015.80518672528,-125160.80590019298,-146317.40257947476
-6287.746880977975,-6334.864358289762,-6315.775968524929,-6368.727251139552,-125808.0453643853,-147014.73230299144,-125161.05176938199,-146318.56487018644
-6278.984997151494,-6328.49411112,-6311.372674867234,-6365.463896449077,-125806.72661146244,-147014.32997159124,-125162.12465311584,-146320.75534114306
-6285.489354787988,-6333.120922222248,-6314.5913260687985,-6367.766126127974,-125808.51475101885,-147015.51461404737,-125162.25876358256,-146320.01773357604
-6293.200706625069,-6338.150064724692,-6317.608811570265,-6369.621320917764,-125809.1405998636,-147015.20168962498,-125160.18005134823,-146316.79908237446
-6286.383424566201,-6332.9644600110605,-6313.406683612667,-6366.223855760558,-125806.83837018472,-147013.43590181303,-125159.19657459219,-146316.55321318546
-6275.632235483198,-6324.962535496061,-6307.595230054287,-6361.68645163613,-125804.64789922809,-147012.16185237907,-125159.77771994803,-146318.43075971972
-6280.102584374259,-6328.203538442081,-6310.098625433282,-6363.631053403742,-125806.54779750679,-147013.70412274648,-125160.71649321515,-146318.788387631
-6290.607904268254,-6335.691372834608,-6315.418340613644,-6367.475553450055,-125809.00648939688,-147015.17933788055,-125160.24710658159,-146316.8884893523
-6286.897514688673,-6332.7856460554185,-6313.026703956927,-6365.30743423789,-125807.59832949619,-147013.92764019105,-125159.35303680338,-146316.39675097427
-6274.782869193897,-6323.777893039929,-6306.34353236479,-6360.166533013169,-125804.75965795037,-147012.09479714572,-125159.53185075903,-146317.96137308615
-6277.509782017444,-6326.080122718826,-6308.422244599134,-6362.044079547415,-125806.9948323959,-147014.21821286896,-125161.69996997119,-146319.86127136485
-6286.450479799567,-6331.802169299384,-6311.8867649897065,-6363.988681315027,-125807.62068124065,-147013.88293670214,-125159.19657459219,-146316.039123063
-6285.221133854525,-6330.595175098798,-6310.456253344567,-6362.513466180977,-125806.36898355115,-147012.58653552373,-125157.7437112026,-146314.51920444003
-6273.732337204497,-6322.369733139245,-6304.53304106391,-6358.065469034371,-125804.26791957235,-147011.44659655652,-125158.72718795863,-146316.8884893523
-6276.86158142824,-6325.878957018728,-6308.4892998324995,-6362.289948736424,-125809.27471033034,-147016.69925650352,-125164.33747581691,-146322.7893498885
-6287.903343189161,-6333.746771066996,-6314.166642924148,-6366.603835416297,-125812.20278885399,-147018.62150652666,-125164.35982756136,-146321.38118998782
-6287.903343189161,-6332.807997799873,-6312.400855112178,-6364.368660970767,-125809.72174521945,-147015.78283498084,-125160.91765891525,-146317.51433819704
-6275.878104672206,-6323.777893039929,-6305.62827654222,-6358.981890557038,-125806.48074227343,-147013.54766053532,-125160.44827228169,-146318.3413527419
-6271.161886592136,-6320.223965671536,-6303.05782592986,-6357.059640533882,-125805.87724517313,-147013.39119832413,-125161.0964728709,-146319.57069868693
-6280.639026241187,-6327.018895985949,-6307.706988776564,-6360.322995224356,-125808.0453643853,-147014.70995124697,-125160.78354844851,-146317.96137308615
-6286.472831544022,-6331.10926522127,-6310.612715555753,-6362.468762692066,-125809.4982277749,-147015.60402102518,-125160.47062402614,-146316.9331928412
-6275.9675116500275,-6323.241451173002,-6304.667151530642,-6357.752544611996,-125806.70425971798,-147013.61471576866,-125160.0459408815,-146317.60374517486
-6270.468982514022,-6319.82163427134,-6302.655494529664,-6356.702012622597,-125807.30775681828,-147014.91111694707,-125162.77285370504,-146321.11296905435
-6278.426203540112,-6325.364866896256,-6306.567049809343,-6359.451277190599,-125809.23000684143,-147016.07340765875,-125162.5940397494,-146319.92832659822
-6283.1871251090915,-6327.77885529743,-6307.215250398547,-6359.048945790404,-125807.82184694074,-147013.83823321323,-125158.74953970309,-146315.16740502923
-6273.486468015489,-6320.20161392708,-6301.113224162248,-6353.930396310138,-125804.13380910562,-147010.86545120066,-125156.84964142439,-146314.22863176212
-6265.886874900684,-6315.150119680181,-6297.983979938505,-6352.052849775893,-125804.26791957235,-147011.84892795671,-125159.4871472701,-146317.91666959724
-6273.642930226676,-6321.162738938659,-6302.811956740851,-6355.986756800027,-125807.75479170738,-147014.82170996926,-125161.54350776,-146319.25777426455
-6281.980130908505,-6326.6836198191195,-6306.29882887588,-6358.110172523281,-125808.53710276332,-147014.77700648035,-125159.80007169249,-146316.19558527417
-6274.29113081588,-6320.20161392708,-6300.845003228785,-6353.326899209846,-125804.87141667264,-147011.33483783423,-125157.1402141023,-146314.11687303983
-6264.210494066536,-6313.049055701382,-6295.905267704162,-6349.884730563728,-125803.6420707276,-147011.04426515632,-125158.72718795863,-146317.00024807456
-6267.853828412751,-6315.619506313742,-6297.872221216228,-6351.4493526756,-125805.0949341172,-147012.29596284582,-125159.4871472701,-146317.22376551913
-6277.398023295167,-6322.101512205782,-6302.096700918281,-6354.131562010237,-125806.45839052898,-147012.69829424602,-125157.85546992488,-146314.22863176212
-6273.754688948952,-6319.128730193225,-6299.4368433281,-6351.672870120153,-125804.67025097254,-147010.95485817848,-125156.3355513019,-146312.97693407262
-6262.914092888128,-6311.551488822876,-6294.117128147737,-6347.917777051661,-125803.21738758295,-147010.5525267783,-125157.90017341379,-146315.99441957407
-6265.618653967221,-6314.01018071296,-6296.553468293366,-6350.2200067305575,-125806.01135563987,-147013.27943960184,-125160.62708623733,-146318.63192541982
-6276.571008750321,-6321.699180805586,-6302.0296456849155,-6354.176265499147,-125808.4476957855,-147014.79935822482,-125160.0459408815,-146316.77673063002
-6274.0899651157815,-6318.860509259762,-6298.878049716717,-6350.935262553127,-125805.2960998173,-147011.46894830096,-125156.60377223538,-146313.02163756153
-6262.154133576648,-6310.120977177737,-6292.306636846857,-6346.084934006326,-125802.63624222712,-147009.79256746682,-125156.9390484022,-146314.76507362904
-6261.550636476355,-6310.165680666648,-6292.977189180517,-6346.956652040083,-125804.51378876137,-147011.87127970115,-125159.57655424793,-146317.67080040823
-6272.793563937374,-6318.413474370655,-6299.05686367236,-6351.404649186689,-125807.66538472955,-147014.10645414668,-125159.8447751814,-146316.6426201633
-6274.760517449441,-6319.374599382234,-6299.10156716127,-6350.890559064217,-125806.90542541808,-147012.87710820165,-125157.72135945814,-146314.20628001765
-6262.981148121495,-6310.590363811299,-6292.351340335767,-6345.682602606131,-125803.59736723869,-147010.5525267783,-125157.22962108013,-146315.01094281804
-6258.242578296969,-6307.349360865279,-6290.272628101424,-6344.274442705446,-125803.48560851642,-147010.97720992294,-125158.794243192,-146317.02259981903
-6268.949063891061,-6315.351285380279,-6296.307599104357,-6348.878902063239,-125807.17364635154,-147013.83823321323,-125160.02358913704,-146317.06730330794
-6272.950026148561,-6317.407645870167,-6297.179317138114,-6348.722439852052,-125806.32428006224,-147012.27361110135,-125157.16256584675,-146313.535727684
-6265.350433033756,-6312.266744645446,-6293.8712589587285,-6346.666079362164,-125806.03370738433,-147012.65359075708,-125159.08481586991,-146316.57556492992
-6257.326156774301,-6306.410587598156,-6289.62442751222,-6343.49213164951,-125804.58084399473,-147011.93833493453,-125159.75536820358,-146318.20724227515
-6267.5185522459215,-6314.34545687979,-6296.017026426438,-6348.856550318784,-125809.02884114133,-147015.76048323637,-125162.32581881594,-146319.74951264256
-6276.056918627849,-6320.425131371633,-6300.219154384035,-6351.941091053616,-125810.86168418668,-147016.85571871468,-125161.85643218237,-146318.1401870418
-6267.317386545824,-6313.496090590488,-6294.72062524803,-6347.224872973547,-125807.6430329851,-147014.21821286896,-125160.31416181495,-146317.2908207525
-6256.8344183962845,-6305.62827654222,-6288.90917168965,-6342.687468849119,-125805.20669283948,-147012.54183203483,-125160.40356879278,-146318.49781495307
-6262.176485321103,-6309.361017866257,-6291.613732768743,-6344.788532827918,-125806.7936666958,-147013.63706751313,-125160.62708623733,-146318.07313180843
-6270.178409836103,-6314.367808624245,-6294.5194595479325,-6346.353154939789,-125807.06188762927,-147013.1006256462,-125158.12369085834,-146314.3403904844
-6265.059860355837,-6310.478605089022,-6291.256104857458,-6343.670945605153,-125805.31845156175,-147011.69246574552,-125157.36373154685,-146314.0945212954
-6253.347546261257,-6301.873183473728,-6284.975264665516,-6338.641803102709,-125802.56918699374,-147009.92667793354,-125157.60960073586,-146315.56973642943
-6256.789714907374,-6304.465985830544,-6287.05397689986,-6340.452294403589,-125804.35732655018,-147011.51365178986,-125158.77189144754,-146316.37439922983
-6268.882008657695,-6313.518442334944,-6293.781851980907,-6345.615547372765,-125808.0900678742,-147014.21821286896,-125159.53185075903,-146315.8826608518
-6267.205627823548,-6312.289096389902,-6292.776023480418,-6344.676774105642,-125807.55362600728,-147013.83823321323,-125159.040112381,-146315.61443991834
-6255.850941640251,-6304.063654430349,-6286.919866433128,-6340.429942659133,-125805.56432075077,-147012.83240471274,-125160.0906443704,-146318.00607657505
-6256.0074038514385,-6304.220116641536,-6287.009273410949,-6340.675811848141,-125806.32428006224,-147013.70412274648,-125161.11882461535,-146318.9895533311
-6266.378613278701,-6311.4397301006,-6292.038415913394,-6344.073277005348,-125808.38064055213,-147014.53113729134,-125160.11299611485,-146316.53086144102
-6266.155095834148,-6310.679770789119,-6290.943180435083,-6342.598061871298,-125806.92777716253,-147012.76534947936,-125157.96722864715,-146314.20628001765
-6252.699345672053,-6300.330913106312,-6282.829497197807,-6335.9595937680715,-125802.45742827147,-147009.34553257772,-125156.4920135131,-146314.11687303983
-6251.4923514714665,-6299.9732851950275,-6283.209476853547,-6336.741904824007,-125804.22321608344,-147011.42424481205,-125159.21892633665,-146317.11200679684
-6261.327119031802,-6306.790567253896,-6287.903343189161,-6340.027611258938,-125806.1901695955,-147012.43007331254,-125158.34720830289,-146315.01094281804
-6264.09873534426,-6308.109320176759,-6288.305674589357,-6339.871149047751,-125805.43021028403,-147011.26778260086,-125156.26849606854,-146312.35108522786
-6252.14055206067,-6299.146270650181,-6281.220171597025,-6334.260861189468,-125801.78687593782,-147008.54086977732,-125155.2403158236,-146312.6416579058
-6246.954947347039,-6295.525288048421,-6278.917941918128,-6332.6738873331415,-125801.58571023772,-147009.01025641087,-125156.82728967993,-146314.87683235132
-6257.326156774301,-6303.236639885502,-6284.841154198784,-6337.144236224203,-125805.13963760612,-147011.73716923443,-125157.96722864715,-146314.8321288624
-6263.204665566047,-6307.125843420726,-6287.344549577779,-6338.5970996137985,-125805.65372772858,-147011.60305876768,-125156.44731002419,-146312.41814046123
-6251.626461938198,-6298.00633168296,-6279.990825651983,-6332.293907677402,-125801.04926837079,-147007.66915174355,-125153.9886181341,-146311.00998056054
-6243.445723467556,-6292.083119402304,-6275.743994205474,-6329.119959964748,-125799.68581195902,-147007.06565464326,-125154.97209489014,-146312.8875270948
-6253.146380561159,-6299.570953794832,-6281.711909975042,-6334.082047233826,-125804.08910561672,-147010.84309945622,-125157.40843503576,-146314.40744571775
-6260.723621931508,-6304.5553928083655,-6284.86350594324,-6335.981945512527,-125804.71495446147,-147010.64193375612,-125155.59794373489,-146311.4346637052
-6253.481656727989,-6299.0345119279045,-6280.48256403,-6332.472721633044,-125802.45742827147,-147008.87614594414,-125154.81563267895,-146311.50171893855
-6243.71394440102,-6292.217229869036,-6275.699290716564,-6329.008201242471,-125801.13867534861,-147008.4514627995,-125156.20144083518,-146314.0945212954
-6251.648813682654,-6298.632180527709,-6281.264875085935,-6333.9032332781835,-125805.60902423967,-147012.54183203483,-125159.62125773684,-146316.77673063002
-6260.030717853394,-6303.996599196983,-6284.349415820768,-6335.579614112332,-125805.92194866204,-147011.93833493453,-125157.11786235785,-146312.9322305837
-6253.325194516801,-6298.34160784979,-6279.387328551689,-6330.930451265628,-125802.07744861573,-147008.31735233276,-125154.03332162302,-146310.31707648243
-6240.160017032626,-6288.328026333813,-6271.698328459064,-6324.694314562597,-125797.9423758915,-147005.2998668313,-125152.89338265579,-146310.65235264925
-6244.339793245768,-6291.792546724385,-6274.872276171717,-6327.510634363965,-125800.8928061596,-147008.22794535494,-125155.46383326815,-146312.97693407262
-6255.225092795503,-6299.392139839189,-6280.191991352081,-6331.355134410279,-125803.21738758295,-147009.36788432216,-125154.72622570113,-146310.80881486044
-6253.61576719472,-6298.0957386607815,-6279.00734889595,-6330.148140209692,-125802.27861431583,-147008.47381454395,-125153.787452434,-146309.9818003156
-6242.752819389441,-6290.429090312611,-6273.732337204497,-6326.415398885656,-125800.91515790406,-147008.07148314375,-125155.4414815237,-146312.99928581706
-6240.875272855195,-6288.7080059895525,-6272.279473814902,-6325.141349451703,-125800.26695731486,-147007.33387557673,-125155.12855710133,-146312.70871313915
-6252.297014271858,-6296.9781514380165,-6278.247389584469,-6329.656401831675,-125803.21738758295,-147009.39023606663,-125155.19561233469,-146311.36760847183
-6253.593415450266,-6297.514593304943,-6278.202686095558,-6329.25407043148,-125802.63624222712,-147008.60792501067,-125153.87685941183,-146309.6912276377
-6241.992860077961,-6288.9985786674715,-6271.921845903617,-6324.426093629133,-125800.02108812584,-147006.90919243207,-125154.10037685638,-146311.21114626064
-6238.170711776103,-6286.159907121648,-6269.887837158184,-6322.883823261717,-125799.68581195902,-147006.90919243207,-125154.72622570113,-146312.2840299945
-6250.307709015336,-6295.502936303966,-6277.040395383882,-6328.605869842276,-125804.15616085008,-147010.48547154493,-125156.51436525755,-146312.79812011696
-6253.168732305615,-6297.045206671382,-6277.509782017444,-6328.270593675446,-125803.15033234959,-147008.96555292196,-125154.05567336747,-146309.6465241488
-6241.344659488757,-6287.836287955795,-6270.33487204729,-6322.436788372611,-125799.05996311427,-147005.83630869823,-125152.58045823342,-146309.35595147085
-6235.443798952556,-6283.611808253742,-6267.652662712653,-6320.559241838365,-125798.74703869189,-147006.19393660952,-125154.05567336747,-146311.65818114975
-6243.110447300726,-6288.775061222918,-6270.983072636494,-6322.72736105053,-125799.93168114802,-147006.5515645208,-125152.9380861447,-146309.42300670422
-6249.525397959399,-6293.111299647248,-6273.57587499331,-6324.269631417947,-125800.55752999277,-147006.41745405406,-125151.37346403283,-146306.96431481413
-6242.059915311327,-6287.8809914447065,-6269.91018890264,-6321.676829061131,-125799.46229451447,-147005.99277090942,-125152.35694078887,-146308.95362007065
-6236.159054775126,-6284.371767565223,-6268.189104579581,-6321.095683705293,-125800.73634394842,-147008.02677965484,-125156.00027513508,-146313.60278291735
-6242.99868857845,-6289.266799600935,-6271.81008718134,-6323.777893039929,-125802.81505618276,-147009.56905002226,-125156.42495827973,-146313.22280326163
-6249.503046214944,-6293.044244413883,-6273.777040693408,-6324.403741884678,-125802.05509687128,-147007.95972442147,-125153.16160358925,-146308.66304739274
-6241.679935655587,-6286.897514688673,-6268.636139468687,-6320.089855204804,-125798.67998345853,-147005.0987011312,-125151.08289135492,-146307.3889979588
-6232.023982050894,-6280.14728786317,-6263.942273133072,-6316.692390047597,-125797.58474798022,-147004.8528319422,-125152.66986521124,-146310.294724738
-6238.573043176299,-6285.399947810167,-6268.323215046313,-6320.559241838365,-125801.31748930425,-147008.2502970994,-125155.39677803479,-146312.50754743905
-6249.279528770391,-6292.843078713784,-6273.665281971131,-6324.470797118044,-125803.68677421652,-147009.59140176672,-125154.99444663459,-146310.6300009048
-6244.228034523491,-6288.573895522821,-6269.932540647094,-6320.894518005195,-125800.84810267069,-147006.9985994099,-125152.75927218907,-146308.66304739274
-6231.264022739413,-6278.761479706941,-6262.511761487933,-6314.948953980083,-125797.11536134666,-147004.2493348419,-125152.02166462204,-146309.31124798194
-6233.990935562961,-6281.063709385838,-6264.612825466732,-6316.9382592366055,-125799.41759102556,-147006.41745405406,-125154.01096987855,-146311.1887945162
-6245.613842679721,-6289.490317045488,-6270.714851703031,-6321.609773827765,-125802.56918699374,-147008.54086977732,-125154.14508034529,-146310.02650380452
-6244.987993834972,-6288.797412967374,-6269.91018890264,-6320.782759282918,-125801.85393117118,-147007.87031744365,-125153.31806580044,-146309.1324340263
-6233.275679740391,-6280.281398329902,-6263.785810921885,-6316.15594818067,-125799.39523928109,-147006.50686103187,-125153.85450766738,-146311.12173928283
-6231.286374483869,-6278.739127962485,-6262.601168465754,-6315.083064446815,-125799.23877706991,-147006.41745405406,-125154.16743208974,-146311.50171893855
-6241.389362977668,-6285.735223976997,-6267.295034801368,-6318.234660415013,-125800.95986139297,-147007.17741336554,-125153.04984486698,-146308.95362007065
-6243.37866823419,-6286.852811199762,-6267.675014457109,-6318.212308670558,-125800.62458522613,-147006.39510230962,-125151.82049892194,-146307.27723923652
-6229.364124460712,-6275.855752927751,-6259.024889352905,-6310.903288233672,-125795.50603574587,-147002.1482708631,-125149.47356575413,-146306.24905899155
-6223.75383660243,-6271.519514503421,-6255.560368962332,-6308.109320176759,-125793.85200665618,-147000.96362840696,-125149.1382895873,-146306.47257643612
-6235.555557674833,-6280.3708053077235,-6262.444706254567,-6313.719608035041,-125798.18824508051,-147004.42814879754,-125150.74761518808,-146306.96431481413
-6241.322307744302,-6284.461174543045,-6265.395136522668,-6315.753616780475,-125799.57405323673,-147005.34457032022,-125150.47939425462,-146305.9361345692
-6230.1240837721925,-6276.012215138939,-6258.756668419442,-6310.322142877834,-125795.97542237943,-147002.5953057522,-125149.36180703186,-146305.86907933583
-6224.08911276926,-6271.988901136983,-6256.119162573715,-6308.601058554776,-125795.97542237943,-147003.10939587466,-125151.17229833273,-146308.61834390383
-6233.812121607319,-6279.074404129316,-6261.684746943087,-6313.049055701382,-125799.37288753664,-147005.79160520932,-125152.5357547445,-146308.8865648373
-6242.931633345084,-6285.8246309548185,-6266.847999912263,-6317.027666214427,-125802.30096606028,-147007.91502093256,-125153.20630707817,-146308.4842334371
-6233.8791768406845,-6278.850886684762,-6261.416526009622,-6312.490262089999,-125799.28348055882,-147005.5010325314,-125151.97696113313,-146308.1936607592
-6224.267926724902,-6271.8547906702515,-6256.230921295992,-6308.601058554776,-125797.27182355784,-147004.42814879754,-125152.46869951114,-146309.75828287104
-6231.956926817528,-6277.8450581842735,-6261.036546353883,-6312.602020812276,-125800.64693697059,-147007.33387557673,-125154.32389430093,-146310.85351834935
-6240.472941455,-6283.477697787011,-6264.657528955642,-6314.904250491172,-125801.58571023772,-147007.28917208783,-125152.62516172233,-146307.85838459234
-6233.856825096229,-6278.314444817835,-6260.365994020223,-6311.283267889413,-125798.94820439199,-147005.12105287565,-125151.2393535661,-146307.12077702532
-6221.295144712347,-6268.770249935419,-6252.989918349972,-6305.360055608757,-125795.14840783458,-147002.26002958536,-125150.30058029898,-146307.52310842552
-6225.832548836774,-6272.212418581536,-6255.8956451291615,-6307.617581798742,-125797.47298925793,-147004.29403833082,-125151.70874019967,-146308.50658518155
-6237.6342699091765,-6280.817840196829,-6262.154133576648,-6312.490262089999,-125800.91515790406,-147006.66332324306,-125152.15577508877,-146307.56781191443
-6234.147397774148,-6277.822706439818,-6259.583682964288,-6310.143328922192,-125799.01525962536,-147005.03164589783,-125150.79231867699,-146306.40552120275
-6222.815063335307,-6269.753726691452,-6253.816932894819,-6305.896497475684,-125797.13771309111,-147004.09287263072,-125151.86520241085,-146308.86421309283
-6222.412731935112,-6269.016119124427,-6253.079325327793,-6305.0247794419265,-125796.71302994646,-147003.53407901933,-125151.28405705502,-146308.1936607592
-6232.314554728813,-6275.632235483198,-6257.460267241034,-6307.908154476661,-125798.05413461378,-147003.86935518615,-125149.69708319868,-146305.17617525771
-6232.247499495447,-6275.408718038645,-6256.85677014074,-6307.282305631913,-125797.27182355784,-147003.06469238576,-125148.69125469819,-146304.05858803494
-6219.574060389288,-6265.99863362296,-6249.637156681676,-6301.604962540265,-125793.82965491172,-147000.6060004957,-125148.15481283127,-146305.042064791
-6217.942383044051,-6265.037508611383,-6249.123066559204,-6301.426148584623,-125794.5449107343,-147001.58947725172,-125149.58532447641,-146306.6290386473
-6228.13477851567,-6272.167715092625,-6253.995746850461,-6304.91302071965,-125796.66832645755,-147002.7517679634,-125148.91477214274,-146304.55032641295
-6230.191139005558,-6273.106488359748,-6254.174560806104,-6304.622448041731,-125795.88601540161,-147001.61182899616,-125147.05957735296,-146302.1363380118
-6219.7305226004755,-6265.618653967221,-6248.899549114651,-6300.554430550866,-125793.85200665618,-147000.51659351785,-125147.75248143107,-146304.25975373504
-6218.6799906110755,-6265.95393013405,-6250.419467737612,-6302.722549763031,-125797.42828576903,-147004.51755577535,-125152.58045823342,-146309.80298635995
-6228.894737827151,-6273.441764526578,-6255.985052106983,-6306.969381209538,-125800.40106778158,-147006.73037847644,-125153.20630707817,-146309.02067530403
-6233.141569273659,-6275.945159905572,-6257.192046307569,-6307.170546909636,-125799.84227417021,-147005.45632904247,-125150.74761518808,-146305.80202410245
-6222.703304613031,-6268.032642368394,-6251.157075304637,-6302.3872735962,-125796.71302994646,-147003.1540993636,-125149.94295238769,-146306.04789329148
-6215.416635920601,-6262.779982421396,-6247.491389213967,-6299.749767750474,-125795.86366365716,-147002.97528540794,-125151.08289135492,-146308.17130901472
-6224.916127314106,-6269.8654854137285,-6253.079325327793,-6304.108357919259,-125799.39523928109,-147005.83630869823,-125152.6922169557,-146308.81950960393
-6232.04633379535,-6274.492296515978,-6255.8956451291615,-6305.6729800311305,-125799.84227417021,-147005.5010325314,-125150.74761518808,-146305.7349688691
-6224.871423825196,-6269.329043546802,-6252.051145082849,-6302.856660229762,-125798.34470729169,-147004.53990751982,-125150.94878088818,-146306.7407973696
-6215.438987665056,-6262.556464976843,-6247.424333980601,-6299.481546817011,-125796.86949215764,-147003.93641041953,-125152.17812683323,-146309.17713751522
-6220.512833656411,-6266.065688856326,-6249.793618892863,-6301.20263114007,-125798.09883810268,-147004.60696275317,-125152.02166462204,-146308.283067737
-6230.325249472291,-6273.039433126382,-6254.621595695209,-6304.711855019553,-125800.11049510367,-147005.85866044267,-125151.26170531055,-146306.47257643612
-6226.860729081718,-6270.692499958575,-6253.213435794525,-6303.77308175243,-125800.13284684812,-147006.23864009843,-125152.22283032213,-146307.9477915702
-6215.930726043073,-6262.71292718803,-6247.513740958422,-6299.548602050377,-125798.12118984714,-147005.14340462012,-125153.09454835589,-146310.0935590379
-6218.121196999693,-6264.076383599804,-6248.184293292081,-6299.995636939483,-125798.54587299179,-147005.18810810903,-125152.89338265579,-146309.46771019313
-6229.207662249525,-6272.055956370349,-6253.861636383729,-6304.242468385991,-125801.18337883752,-147006.90919243207,-125152.62516172233,-146307.8360328479
-6225.206699992025,-6268.591435979776,-6250.598281693254,-6301.068520673338,-125798.47881775843,-147004.40579705307,-125150.14411808779,-146305.55615491344
-6214.679028353576,-6261.394174265168,-6245.703249657542,-6297.8051659828625,-125797.42828576903,-147004.2493348419,-125152.0887198554,-146308.95362007065
-6216.601278376732,-6263.204665566047,-6247.536092702877,-6299.660360772653,-125799.84227417021,-147006.57391626525,-125154.6368187233,-146311.36760847183
-6227.173653504093,-6270.468982514022,-6252.632290438687,-6303.236639885502,-125801.78687593782,-147007.69150348802,-125153.67569371173,-146308.8865648373
-6227.643040137654,-6270.424279025112,-6252.297014271858,-6302.521384062932,-125800.95986139297,-147006.7527302209,-125152.37929253333,-146307.3442944699
-6216.377760932179,-6262.221188810014,-6246.418505480112,-6298.073386916326,-125798.79174218081,-147005.41162555356,-125153.04984486698,-146309.55711717095
-6213.717903341998,-6260.455400998045,-6245.278566512891,-6297.29107586039,-125799.08231485872,-147005.99277090942,-125154.16743208974,-146311.05468404945
-6222.300973212836,-6266.065688856326,-6248.698383414553,-6299.302732861368,-125799.66346021456,-147005.63514299813,-125152.04401636649,-146307.50075668105
-6225.296106969847,-6267.8091249238405,-6249.413639237123,-6299.4368433281,-125799.26112881437,-147004.78577670883,-125150.32293204343,-146305.22087874662
-6214.254345208925,-6259.740145175475,-6243.311613000824,-6294.832383970307,-125796.53421599082,-147003.10939587466,-125150.23352506562,-146306.45022469165
-6207.101786983227,-6254.174560806104,-6239.020078065405,-6291.233753113002,-125794.41080026756,-147001.47771852944,-125149.60767622087,-146306.56198341394
-6217.89767955514,-6262.422354510111,-6245.435028724079,-6296.464061315544,-125798.45646601397,-147004.67401798654,-125151.30640879947,-146307.07607353642
-6224.066761024805,-6266.535075489888,-6248.005479336439,-6298.0957386607815,-125799.14937009208,-147004.76342496436,-125150.12176634333,-146304.95265781315
-6213.606144619721,-6258.399040508157,-6241.590528677765,-6292.776023480418,-125795.48368400142,-147001.88004992963,-125148.62419946483,-146304.46091943514
-6207.884098039162,-6255.0686305843155,-6239.958851332528,-6292.172526380125,-125796.62362296863,-147003.75759646387,-125151.97696113313,-146308.8418613484
-6215.483691153967,-6260.544807975866,-6244.026868823394,-6295.212363626047,-125799.05996311427,-147005.38927380912,-125152.37929253333,-146308.37247471482
-6223.530319157877,-6265.99863362296,-6247.625499680698,-6297.581648538309,-125800.15519859258,-147005.67984648704,-125151.06053961047,-146305.8467275914
-6214.835490564763,-6259.114296330727,-6242.0375635668715,-6292.843078713784,-125796.60127122418,-147002.70706447447,-125149.16064133176,-146304.55032641295
-6206.6994555830315,-6253.816932894819,-6238.818912365307,-6290.920828690628,-125796.78008517982,-147003.77994820834,-125151.99931287758,-146308.6406956483
-6213.427330664079,-6258.957834119539,-6242.9763368339945,-6294.430052570111,-125799.88697765912,-147006.48450928743,-125153.9886181341,-146309.95944857114
-6222.4350836795675,-6264.948101633561,-6246.798485135852,-6296.821689226829,-125800.8928061596,-147006.48450928743,-125152.15577508877,-146306.85255609185
-6217.517699899399,-6261.014194609427,-6243.669240912109,-6294.072424658826,-125798.94820439199,-147004.87518368664,-125150.90407739927,-146306.20435550265
