Time,CH1,CH2,CH3,CH4,CH5,CH6,CH7,CH8
1652215402.573383,0.0,0.0,0.0,0.0,0.0,0.0,0.0,0.0
1652215402.586437,-86438.08501220764,-15079.872617706373,-15706.123793855168,-16150.744694560135,-181825.89791129803,-187500.02235174447,-184434.45824795464,-187500.02235174447
1652215402.592495,-86425.23275914583,-15075.826951959963,-15701.608741475195,-16146.520214858081,-181823.6627368525,-187500.02235174447,-184432.2230735091,-187500.02235174447
1652215402.592505,-86457.32986418366,-15075.290510093035,-15700.804078674804,-16145.91671775779,-181825.13795198654,-187500.02235174447,-184433.72064038762,-187500.02235174447
1652215402.599016,-86472.88667832455,-15077.503332794111,-15702.592218231228,-16147.8613195254,-181829.18361773298,-187500.02235174447,-184437.60984392284,-187500.02235174447
1652215402.59903,-86435.53691333973,-15075.31286183749,-15700.088822852234,-16145.424979379772,-181828.96010028842,-187500.02235174447,-184437.2298642671,-187500.02235174447
1652215402.606835,-86409.47477930484,-15073.301204836513,-15697.71953793997,-16143.323915400973,-181828.8706933106,-187500.02235174447,-184437.00634682254,-187500.02235174447
1652215402.606844,-86436.87801800705,-15070.484885035145,-15694.590293716228,-16140.48524385515,-181827.8648648101,-187500.02235174447,-184436.11227704433,-187500.02235174447
1652215402.614873,-86458.69332059543,-15067.400344300313,-15691.282235536843,-16137.244240909129,-181826.7249258429,-187500.02235174447,-184434.8829310993,-187500.02235174447
1652215402.614882,-86426.88678823553,-15065.388687299335,-15688.91295062458,-16135.031418208055,-181826.4790566539,-187500.02235174447,-184434.7264688881,-187500.02235174447
1652215402.622181,-86391.63808722951,-15061.4547802752,-15684.509656966884,-16130.873993739368,-181824.422696164,-187500.02235174447,-184432.55834967594,-187500.02235174447
1652215402.622197,-86410.43590431641,-15057.051486617505,-15679.681680164538,-16126.38129310385,-181822.03105950728,-187500.02235174447,-184430.0326025525,-187500.02235174447
1652215402.629669,-86440.16372444198,-15054.570442982966,-15676.887712107626,-16123.788490747034,-181821.49461764033,-187500.02235174447,-184429.4738089411,-187500.02235174447
1652215402.62968,-86418.21431138687,-15053.475207504656,-15675.524255695851,-16122.536793057538,-181822.47809439639,-187500.02235174447,-184430.2784717415,-187500.02235174447
1652215402.637688,-86380.37280802403,-15051.59766097041,-15673.356136483686,-16120.458080823193,-181822.54514962973,-187500.02235174447,-184430.30082348597,-187500.02235174447
1652215402.637705,-86394.58851749761,-15048.781341169042,-15670.271595748854,-16117.530002299549,-181821.7181350849,-187500.02235174447,-184429.4291054522,-187500.02235174447
1652215402.644578,-86422.72936376683,-15045.540338223022,-15666.605909658183,-16114.132537142343,-181820.3099751842,-187500.02235174447,-184427.9762420626,-187500.02235174447
1652215402.651633,-86407.7983984707,-15042.768721910565,-15663.454313689985,-16111.226810363152,-181819.55001587272,-187500.02235174447,-184427.2386344956,-187500.02235174447
1652215402.651641,-86364.39131073849,-15039.840643386919,-15660.168607255055,-16108.142269628319,-181818.49948388332,-187500.02235174447,-184426.1881025062,-187500.02235174447
1652215402.659175,-86365.6877119169,-15037.06902707446,-15657.106418264679,-16105.28124633804,-181817.7171728274,-187500.02235174447,-184425.31638447242,-187500.02235174447
1652215402.659185,-86401.42815130093,-15033.805672383985,-15653.507787407374,-16101.883781180833,-181816.5101786268,-187500.02235174447,-184423.86352108282,-187500.02235174447
1652215402.667349,-86397.69540997689,-15031.123463049349,-15650.535005394819,-16098.933350912734,-181815.83962629316,-187500.02235174447,-184423.19296874918,-187500.02235174447
1652215402.667363,-86352.58958966608,-15028.553012436989,-15647.517519893352,-16096.117031111364,-181815.10201872612,-187500.02235174447,-184422.45536118216,-187500.02235174447
1652215402.675282,-86344.20768549535,-15026.809576369475,-15645.438807659008,-16094.351243299396,-181815.2584809373,-187500.02235174447,-184422.54476815998,-187500.02235174447
1652215402.675291,-86382.138595836,-15026.675465902743,-15645.036476258812,-16094.083022365932,-181817.18073096048,-187500.02235174447,-184424.3329077164,-187500.02235174447
1652215402.681865,-86387.23479357181,-15022.853317600886,-15640.990810512401,-16090.216170575164,-181815.39259140403,-187500.02235174447,-184422.54476815998,-187500.02235174447
1652215402.681875,-86344.878237829,-15019.411148954769,-15637.146310466089,-16086.595187973404,-181813.91737627,-187500.02235174447,-184421.024849537,-187500.02235174447
1652215402.689911,-86332.4283161674,-15018.673541387743,-15635.984019754413,-16085.723469939647,-181815.03496349277,-187500.02235174447,-184422.2765472265,-187500.02235174447
1652215402.689923,-86363.1843165379,-15017.108919275872,-15634.039417986802,-16083.980033872132,-181815.4149431485,-187500.02235174447,-184422.58947164888,-187500.02235174447
1652215402.697889,-86377.95881962286,-15014.940800063707,-15631.670133074538,-16081.767211171058,-181815.39259140403,-187500.02235174447,-184422.54476815998,-187500.02235174447
1652215402.697897,-86338.50799065924,-15011.476279673134,-15627.847984772681,-16078.079173335931,-181813.9620797589,-187500.02235174447,-184421.024849537,-187500.02235174447
1652215402.704188,-86310.61301357902,-15009.68814011671,-15625.679865560516,-16076.112219823865,-181814.02913499228,-187500.02235174447,-184421.00249779256,-187500.02235174447
1652215402.711534,-86337.63627262549,-15007.810593582464,-15623.467042859442,-16074.167618056254,-181814.14089371456,-187500.02235174447,-184421.11425651482,-187500.02235174447
1652215402.711543,-86360.63621766999,-15003.87668655833,-15619.287266646299,-16070.099600565387,-181812.33040241367,-187500.02235174447,-184419.25906172505,-187500.02235174447
1652215402.719645,-86332.0706882561,-15003.094375502395,-15618.080272445712,-16069.116123809354,-181813.5150448698,-187500.02235174447,-184420.26489022552,-187500.02235174447
1652215402.719657,-86298.5207198287,-15002.53558189101,-15617.14149917859,-16068.356164497873,-181814.9232047705,-187500.02235174447,-184421.53893965948,-187500.02235174447
1652215402.727533,-86316.75974330422,-14999.20517196717,-15613.542868321285,-16065.025754574031,-181813.64915533652,-187500.02235174447,-184420.39900069227,-187500.02235174447
1652215402.727542,-86349.95208382036,-14998.422860911234,-15612.447632842976,-16064.198740029186,-181814.99026000386,-187500.02235174447,-184421.65069838177,-187500.02235174447
1652215402.734137,-86326.16982771992,-14994.82423005393,-15608.558429307752,-16060.398943471784,-181813.44798963642,-187500.02235174447,-184419.9296140587,-187500.02235174447
1652215402.734146,-86287.72482725678,-14993.125497475326,-15606.457365328952,-16058.521396937538,-181813.78326580327,-187500.02235174447,-184420.24253848108,-187500.02235174447
1652215402.742192,-86301.0688186966,-14991.270302685536,-15604.289246116788,-16056.576795169925,-181813.89502452553,-187500.02235174447,-184420.28724196999,-187500.02235174447
1652215402.7422,-86329.16496147693,-14987.358747405857,-15599.99771118137,-16052.397018956784,-181811.8163122912,-187500.02235174447,-184418.3202884579,-187500.02235174447
1652215402.750317,-86317.11737121551,-14984.833000282408,-15597.047280913268,-16049.625402644326,-181811.2575186798,-187500.02235174447,-184417.85090182436,-187500.02235174447
1652215402.750328,-86273.12913812746,-14981.815514780941,-15593.716870989427,-16046.518510165039,-181810.29639366822,-187500.02235174447,-184416.7780180905,-187500.02235174447
1652215402.757514,-86272.39153056045,-14979.401526379768,-15591.03466165479,-16044.015114786043,-181809.84935877912,-187500.02235174447,-184416.1745209902,-187500.02235174447
1652215402.757532,-86310.38949613446,-14978.261587412548,-15589.537094776286,-16042.763417096547,-181810.74342855735,-187500.02235174447,-184417.04623902397,-187500.02235174447
1652215402.763877,-86308.2213769223,-14975.802895522464,-15586.787830208283,-16040.192966484186,-181810.38580064607,-187500.02235174447,-184416.6662593682,-187500.02235174447
1652215402.77187,-86263.29437056714,-14972.472485598622,-15583.099792373157,-16036.706094349158,-181809.02234423428,-187500.02235174447,-184415.3251547009,-187500.02235174447
1652215402.77188,-86253.77252742917,-14972.181912920703,-15582.406888295041,-16036.147300737775,-181810.6540215795,-187500.02235174447,-184416.91212855725,-187500.02235174447
1652215402.779814,-86287.97069644579,-14968.829151252408,-15578.651795226551,-16032.83924255839,-181809.49173086786,-187500.02235174447,-184415.5710238899,-187500.02235174447
1652215402.779824,-86297.22431865029,-14966.415162851235,-15575.94723414746,-16030.224088457118,-181809.0670477232,-187500.02235174447,-184415.19104423418,-187500.02235174447
1652215402.786949,-86256.03005361916,-14963.129456416305,-15572.348603290155,-16026.737216322092,-181807.83770177816,-187500.02235174447,-184413.9169948002,-187500.02235174447
1652215402.786957,-86241.03203308965,-14962.101276171361,-15570.940443389469,-16025.485518632595,-181808.77647504528,-187500.02235174447,-184414.7663610895,-187500.02235174447
1652215402.794515,-86270.46928053729,-14960.335488359391,-15568.705268943939,-16023.518565120527,-181808.97764074538,-187500.02235174447,-184414.90047155626,-187500.02235174447
1652215402.794525,-86287.05427492312,-14959.776694748009,-15567.833550910182,-16022.89271627578,-181810.4528558794,-187500.02235174447,-184416.24157622358,-187500.02235174447
1652215402.802447,-86251.44794600582,-14957.586223791388,-15565.285452042277,-16020.590486596882,-181810.3187454127,-187500.02235174447,-184416.04041052348,-187500.02235174447
1652215402.802456,-86219.48495143473,-14953.406447578247,-15560.83745489567,-16016.366006894828,-181808.17297794498,-187500.02235174447,-184413.89464305577,-187500.02235174447
1652215402.810509,-86242.57430345706,-14949.651354509755,-15556.657678682528,-16012.387396381784,-181806.5189488553,-187500.02235174447,-184412.1735587327,-187500.02235174447
1652215402.810519,-86269.21758284779,-14947.282069597491,-15554.042524581257,-16009.9287044917,-181806.2507279218,-187500.02235174447,-184411.99474477707,-187500.02235174447
1652215402.817053,-86241.79199240112,-14945.181005618693,-15551.583832691174,-16007.648826557259,-181806.09426571065,-187500.02235174447,-184411.86063431035,-187500.02235174447
1652215402.817062,-86205.8950908059,-14943.392866062268,-15549.438065223465,-16005.726576534104,-181806.3177831552,-187500.02235174447,-184412.0170965215,-187500.02235174447
1652215402.824055,-86222.54714042511,-14941.29180208347,-15547.02407682229,-16003.491402088572,-181806.27307966628,-187500.02235174447,-184411.90533779925,-187500.02235174447
1652215402.824064,-86253.28078905116,-14938.654296237744,-15544.02894306528,-16000.675082287204,-181805.7589895438,-187500.02235174447,-184411.23478546558,-187500.02235174447
1652215402.832073,-86233.0077568302,-14935.189775847171,-15540.229146507878,-15997.054099685443,-181804.37318138758,-187500.02235174447,-184409.73721858708,-187500.02235174447
1652215402.840204,-86193.10989297747,-14933.133415357283,-15537.83750985116,-15994.863628728823,-181804.39553313205,-187500.02235174447,-184409.78192207598,-187500.02235174447
1652215402.840214,-86202.8999570489,-14930.33944730037,-15534.641210394051,-15991.823791482902,-181803.54616684275,-187500.02235174447,-184408.95490753115,-187500.02235174447
1652215402.846791,-86232.49366670773,-14927.076092609894,-15531.02022779229,-15988.403974581239,-181802.22741391987,-187500.02235174447,-184407.5690993749,-187500.02235174447
1652215402.846802,-86223.12828578094,-14924.438586764169,-15528.069797524191,-15985.610006524326,-181801.62391681958,-187500.02235174447,-184406.98795401907,-187500.02235174447
1652215402.8549,-86181.62109632744,-14923.320999541404,-15526.549878901229,-15984.425364068195,-181802.67444880898,-187500.02235174447,-184407.94907903066,-187500.02235174447
1652215402.854917,-86179.63179107092,-14922.851612907842,-15525.767567845294,-15983.888922201268,-181804.3508296431,-187500.02235174447,-184409.5807563759,-187500.02235174447
1652215402.862814,-86215.48398917723,-14921.421101262702,-15523.979428288869,-15982.279596600485,-181804.93197499897,-187500.02235174447,-184410.09484649837,-187500.02235174447
1652215402.862828,-86216.84744558901,-14918.738891928066,-15520.984294531858,-15979.485628543573,-181804.39553313205,-187500.02235174447,-184409.4242941647,-187500.02235174447
1652215402.870143,-86172.65804680086,-14915.207316304126,-15517.16214623,-15975.819942452901,-181803.03207672026,-187500.02235174447,-184407.99378251957,-187500.02235174447
1652215402.87016,-86158.12941290492,-14912.882734880774,-15514.457585150909,-15973.249491840541,-181802.62974532007,-187500.02235174447,-184407.5690993749,-187500.02235174447
1652215402.878072,-86194.22748020024,-14912.681569180677,-15513.78703281725,-15972.802456951435,-181804.44023662095,-187500.02235174447,-184409.3795906758,-187500.02235174447
1652215402.878088,-86204.86691056096,-14909.194697045648,-15509.942532770936,-15969.092067371854,-181803.0991319536,-187500.02235174447,-184407.88202379728,-187500.02235174447
1652215402.884737,-86166.35485486446,-14906.534839455468,-15507.059157736203,-15966.387506292762,-181802.69680055344,-187500.02235174447,-184407.45734065265,-187500.02235174447
1652215402.884748,-86148.69697674477,-14905.730176655075,-15505.82981179116,-15965.426381281184,-181803.83673952066,-187500.02235174447,-184408.5749278754,-187500.02235174447
1652215402.891748,-86174.33442763501,-14902.891505109252,-15502.521753611774,-15962.431247524173,-181803.0991319536,-187500.02235174447,-184407.65850635275,-187500.02235174447
1652215402.899696,-86191.72408482124,-14899.89637135224,-15499.392509388032,-15959.391410278251,-181802.3168208977,-187500.02235174447,-184406.85384355235,-187500.02235174447
1652215402.899706,-86157.30239836007,-14896.744775384042,-15495.88328550855,-15956.06100035441,-181801.17688193047,-187500.02235174447,-184405.73625632958,-187500.02235174447
1652215402.907665,-86125.11588634443,-14894.643711405244,-15493.312834896189,-15953.803474164424,-181801.154530186,-187500.02235174447,-184405.78095981848,-187500.02235174447
1652215402.907677,-86148.85343895596,-14893.6155311603,-15491.859971506594,-15952.618831708292,-181802.1156551976,-187500.02235174447,-184406.76443657454,-187500.02235174447
1652215402.914273,-86175.78729102461,-14889.882789836263,-15487.881360993548,-15948.819035150891,-181800.5063295968,-187500.02235174447,-184405.021000507,-187500.02235174447
1652215402.914282,-86150.35100583447,-14886.686490379154,-15484.439192347432,-15945.555680460417,-181799.5005010963,-187500.02235174447,-184403.85870979534,-187500.02235174447
1652215402.922283,-86112.30833677153,-14884.674833378176,-15482.069907435169,-15943.432264737163,-181799.58990807415,-187500.02235174447,-184403.88106153978,-187500.02235174447
1652215402.92232,-86126.83697066749,-14884.831295589363,-15481.756983012794,-15943.365209503796,-181801.7580272863,-187500.02235174447,-184406.00447726305,-187500.02235174447
1652215402.930332,-86160.6328082839,-14882.998452544029,-15479.678270778451,-15941.420607736185,-181802.02624821977,-187500.02235174447,-184406.18329121868,-187500.02235174447
1652215402.930342,-86142.8855231864,-14878.975138542073,-15475.386735843033,-15937.196128034131,-181800.19340517445,-187500.02235174447,-184404.21633770663,-187500.02235174447
1652215402.937493,-86102.36181048892,-14877.18699898565,-15473.196264886412,-15935.229174522065,-181800.48397785236,-187500.02235174447,-184404.48455864008,-187500.02235174447
1652215402.937503,-86110.63195593738,-14875.555321640411,-15471.139904396523,-15933.373979732274,-181800.88630925256,-187500.02235174447,-184404.9762970181,-187500.02235174447
1652215402.944926,-86139.42100279582,-14870.995565771529,-15466.267224105266,-15928.68011339666,-181798.49467259584,-187500.02235174447,-184402.45054989465,-187500.02235174447
1652215402.944936,-86135.15181960486,-14869.922682037673,-15464.881415949038,-15927.383712218252,-181799.5005010963,-187500.02235174447,-184403.38932316177,-187500.02235174447
1652215402.952027,-86092.6164499064,-14868.581577370356,-15463.182683370434,-15925.930848828657,-181800.2604604078,-187500.02235174447,-184404.08222723988,-187500.02235174447
1652215402.961516,-86082.49110966816,-14864.379449412758,-15458.511168779276,-15921.572258659871,-181798.06998945118,-187500.02235174447,-184401.93645977217,-187500.02235174447
1652215402.961527,-86115.88461588438,-14859.685583077144,-15453.459674532376,-15916.744281857525,-181795.52189058327,-187500.02235174447,-184399.34365741536,-187500.02235174447
1652215402.967662,-86120.33261303099,-14857.025725486963,-15450.621002986552,-15913.995017289522,-181795.0525039497,-187500.02235174447,-184398.8742707818,-187500.02235174447
1652215402.967672,-86080.39004568936,-14857.13748420924,-15450.352782053089,-15914.039720778434,-181797.3547336286,-187500.02235174447,-184401.02003824952,-187500.02235174447
1652215402.974575,-86061.90515302481,-14853.717667307577,-15446.53063375123,-15910.351682943308,-181795.87951849456,-187500.02235174447,-184399.56717485993,-187500.02235174447
1652215402.974585,-86094.40458946284,-14850.946050995119,-15443.289630805211,-15907.28949395293,-181795.09720743864,-187500.02235174447,-184398.82956729288,-187500.02235174447
1652215402.982599,-86112.35304026045,-14850.74488529502,-15442.842595916105,-15907.043624763923,-181797.26532665078,-187500.02235174447,-184400.93063127168,-187500.02235174447
1652215402.982607,-86075.18208923127,-14848.867338760774,-15440.607421470575,-15905.00961601849,-181797.48884409535,-187500.02235174447,-184401.06474173843,-187500.02235174447
1652215402.989666,-86051.75746104211,-14846.341591637325,-15437.746398180296,-15902.282703194942,-181796.9524022284,-187500.02235174447,-184400.61770684933,-187500.02235174447
1652215402.989677,-86076.05380726502,-14842.541795079924,-15433.611325456062,-15898.281740937442,-181795.32072488317,-187500.02235174447,-184398.91897427072,-187500.02235174447
1652215402.997329,-86096.05861855253,-14840.12780667875,-15430.839709143605,-15895.755993813991,-181795.11955918308,-187500.02235174447,-184398.56134635943,-187500.02235174447
1652215402.997342,-86063.29096118105,-14836.707989777087,-15427.039912586202,-15892.202066445598,-181793.84550974914,-187500.02235174447,-184397.22024169212,-187500.02235174447
1652215403.005245,-86028.44459157523,-14833.98107695354,-15424.022427084736,-15889.273987921953,-181793.19730915994,-187500.02235174447,-184396.48263412507,-187500.02235174447
1652215403.005254,-86048.96349298519,-14832.036475185929,-15421.630790428018,-15887.1505721987,-181793.28671613775,-187500.02235174447,-184396.54968935845,-187500.02235174447
1652215403.012241,-86079.20540323322,-14829.018989684462,-15418.278028759722,-15883.976624486046,-181792.41499810398,-187500.02235174447,-184395.61091609133,-187500.02235174447
1652215403.019464,-86054.9090570103,-14824.995675682507,-15413.964142079849,-15879.774496528447,-181790.6045068031,-187500.02235174447,-184393.77807304598,-187500.02235174447
1652215403.019471,-86014.31828907947,-14823.207536126083,-15411.796022867684,-15877.874598249746,-181790.87272773657,-187500.02235174447,-184393.97923874608,-187500.02235174447
1652215403.02687,-86026.58939678544,-14822.715797748066,-15410.991360067292,-15877.293452893908,-181792.57146031517,-187500.02235174447,-184395.65561958024,-187500.02235174447
1652215403.02688,-86061.50282162463,-14820.950009936096,-15408.823240855128,-15875.326499381841,-181793.08555043765,-187500.02235174447,-184396.05795098044,-187500.02235174447
1652215403.034899,-86048.67292030728,-14819.094815146305,-15406.610418154052,-15873.38189761423,-181793.3537713711,-187500.02235174447,-184396.23676493607,-187500.02235174447
1652215403.03491,-86006.42812328675,-14816.233791856026,-15403.369415208033,-15870.364412112764,-181792.5044050818,-187500.02235174447,-184395.45445388014,-187500.02235174447
1652215403.042916,-86009.08798087692,-14811.472870287047,-15398.317920961133,-15865.536435310416,-181789.9563062139,-187500.02235174447,-184392.88400326777,-187500.02235174447
1652215403.042924,-86042.59324581543,-14810.6458557422,-15397.155630249457,-15864.396496343195,-181791.27505913677,-187500.02235174447,-184394.20275619064,-187500.02235174447
1652215403.049484,-86040.1122021809,-14809.304751074882,-15395.47924941531,-15862.85422597578,-181792.14677717054,-187500.02235174447,-184394.98506724657,-187500.02235174447
1652215403.049494,-85994.73816093661,-14805.996692895496,-15392.014729024737,-15859.501464307485,-181791.07389343667,-187500.02235174447,-184393.80042479045,-187500.02235174447
1652215403.05753,-85983.42817824223,-14802.420413782647,-15388.013766767237,-15855.813426472358,-181789.73278876935,-187500.02235174447,-184392.34756140085,-187500.02235174447
1652215403.05754,-86018.0510304035,-14799.469983514546,-15384.683356843396,-15852.751237481982,-181788.88342248005,-187500.02235174447,-184391.43113987817,-187500.02235174447
1652215403.065514,-86026.74585899661,-14798.307692802871,-15383.074031242613,-15851.454836303574,-181789.88925098054,-187500.02235174447,-184392.43696837866,-187500.02235174447
1652215403.065524,-85985.30572477648,-14796.050166612884,-15380.503580630253,-15848.99614441349,-181789.66573353598,-187500.02235174447,-184392.36991314532,-187500.02235174447
1652215403.072708,-85966.038521056,-14794.373785778736,-15378.42486839591,-15847.163301368155,-181790.06806493617,-187500.02235174447,-184392.74989280105,-187500.02235174447
1652215403.072717,-85997.06274235997,-14790.462230499057,-15374.245092182768,-15843.207042599564,-181788.43638759095,-187500.02235174447,-184390.91704975572,-187500.02235174447
1652215403.079282,-86013.62538500136,-14787.668262442145,-15371.048792725658,-15840.211908842553,-181787.72113176837,-187500.02235174447,-184390.20179393314,-187500.02235174447
1652215403.087205,-85975.26979151605,-14784.136686818205,-15367.18194093489,-15836.456815774061,-181786.33532361215,-187500.02235174447,-184388.83833752136,-187500.02235174447
1652215403.087215,-85949.54293364799,-14780.940387361097,-15363.605661822041,-15833.104054105766,-181785.24008813384,-187500.02235174447,-184387.6760468097,-187500.02235174447
1652215403.095162,-85973.03461707052,-14777.609977437256,-15359.828217009095,-15829.70658894856,-181784.18955614444,-187500.02235174447,-184386.53610784246,-187500.02235174447
1652215403.09517,-85995.76634118156,-14776.000651836473,-15357.883615241482,-15827.985504625502,-181784.81540498917,-187500.02235174447,-184387.0725497094,-187500.02235174447
1652215403.102364,-85964.16097452176,-14771.39619247868,-15353.055638439137,-15823.291638289886,-181782.42376833246,-187500.02235174447,-184384.63620956376,-187500.02235174447
1652215403.102379,-85924.9783664916,-14765.897663342676,-15347.17712964739,-15817.569591709327,-181779.11571015307,-187500.02235174447,-184381.39520661774,-187500.02235174447
1652215403.111239,-85945.54197139048,-14765.5847389203,-15346.394818591454,-15817.12255682022,-181780.99325668733,-187500.02235174447,-184383.20569791863,-187500.02235174447
1652215403.111248,-85979.38251249582,-14765.920015087131,-15346.193652891357,-15817.256667286954,-181783.54135555524,-187500.02235174447,-184385.55263108644,-187500.02235174447
1652215403.118234,-85959.40005295278,-14764.869483097731,-15344.807844735127,-15815.982617853,-181784.72599801136,-187500.02235174447,-184386.71492179812,-187500.02235174447
1652215403.118245,-85916.28353789849,-14760.39913420667,-15340.091626655058,-15811.400510239662,-181782.44612007693,-187500.02235174447,-184384.43504386366,-187500.02235174447
1652215403.125891,-85926.31947115893,-14760.265023739938,-15339.55518478813,-15811.042882328378,-181784.36837010007,-187500.02235174447,-184386.33494214236,-187500.02235174447
1652215403.125899,-85961.36700646485,-14757.985145805496,-15337.007085920226,-15808.740652649481,-181784.41307358898,-187500.02235174447,-184386.33494214236,-187500.02235174447
1652215403.132349,-85948.73827084759,-14753.358334703247,-15332.000295162237,-15804.046786313867,-181782.06614042117,-187500.02235174447,-184383.98800897456,-187500.02235174447
1652215403.132356,-85906.98521220508,-14751.458436424547,-15329.675713738885,-15801.945722335067,-181782.33436135465,-187500.02235174447,-184384.16682293022,-187500.02235174447
1652215403.139484,-85909.08627618388,-14748.10567475625,-15325.920620670393,-15798.481201944496,-181781.12736715405,-187500.02235174447,-184382.91512524072,-187500.02235174447
1652215403.147468,-85939.26113119855,-14744.864671810232,-15322.277286324179,-15795.016681553923,-181780.00977993128,-187500.02235174447,-184381.75283452903,-187500.02235174447
1652215403.147479,-85937.02595675302,-14742.003648519953,-15319.12569035598,-15791.976844308001,-181779.36157934208,-187500.02235174447,-184381.01522696202,-187500.02235174447
1652215403.15466,-85894.40118007675,-14740.126101985707,-15316.890515910449,-15790.054594284844,-181779.83096597565,-187500.02235174447,-184381.4175583622,-187500.02235174447
1652215403.154668,-85882.35358981533,-14738.561479873835,-15314.990617631749,-15788.288806472876,-181780.4568148204,-187500.02235174447,-184382.08811069585,-187500.02235174447
1652215403.161992,-85916.55175883195,-14735.856918794743,-15311.88372515246,-15785.427783182597,-181779.89802120902,-187500.02235174447,-184381.5293170845,-187500.02235174447
1652215403.162002,-85926.6323955813,-14733.442930393569,-15309.179164073368,-15782.902036059146,-181779.74155899783,-187500.02235174447,-184381.3281513844,-187500.02235174447
1652215403.170127,-85888.23209860708,-14733.085302482285,-15308.441556506343,-15782.365594192219,-181781.55205029872,-187500.02235174447,-184383.04923570744,-187500.02235174447
1652215403.170136,-85867.60143847483,-14731.6771425816,-15306.631065205464,-15780.778620335892,-181782.28965786574,-187500.02235174447,-184383.80919501893,-187500.02235174447
1652215403.178133,-85896.7257615001,-14728.257325679939,-15302.898323881427,-15777.179989478587,-181781.21677413187,-187500.02235174447,-184382.5798490739,-187500.02235174447
1652215403.178154,-85914.20482566414,-14724.837508778277,-15299.143230812935,-15773.603710365738,-181780.05448342022,-187500.02235174447,-184381.30579963993,-187500.02235174447
1652215403.184692,-85878.84436593585,-14721.730616298988,-15295.566951700086,-15770.183893464076,-181779.13806189754,-187500.02235174447,-184380.3670263728,-187500.02235174447
1652215403.184701,-85851.9105138672,-14719.562497086823,-15292.97414934327,-15767.747553318448,-181779.04865491972,-187500.02235174447,-184380.25526765053,-187500.02235174447
1652215403.192652,-85875.55865950092,-14718.020226719407,-15291.007195831204,-15766.115875973212,-181779.71920725337,-187500.02235174447,-184380.81406126192,-187500.02235174447
1652215403.192661,-85897.86570046732,-14714.421595862103,-15287.185047529347,-15762.472541626996,-181778.31104735268,-187500.02235174447,-184379.38354961676,-187500.02235174447
1652215403.199685,-85872.09413911036,-14713.125194683695,-15285.575721928564,-15761.0196782374,-181779.38393108654,-187500.02235174447,-184380.3670263728,-187500.02235174447
1652215403.207645,-85836.66662414868,-14712.186421416573,-15284.2569690057,-15759.857387525724,-181780.76973924277,-187500.02235174447,-184381.70813104013,-187500.02235174447
1652215403.207653,-85848.53540045445,-14706.822002747298,-15278.557274169598,-15754.425913623085,-181777.55108804122,-187500.02235174447,-184378.53418332746,-187500.02235174447
1652215403.21426,-85876.65389497923,-14700.831735233276,-15272.187026999836,-15748.301535642331,-181773.79599497272,-187500.02235174447,-184374.75673851452,-187500.02235174447
1652215403.214269,-85858.50427848152,-14698.037767176364,-15269.035431031638,-15745.261698396409,-181773.3042565947,-187500.02235174447,-184374.08618618085,-187500.02235174447
1652215403.222316,-85819.81340882939,-14698.820078232298,-15269.504817665198,-15745.954602474523,-181776.38879732954,-187500.02235174447,-184377.05896819342,-187500.02235174447
1652215403.222324,-85825.53545540995,-14697.34486309825,-15267.627271130952,-15744.322925129287,-181777.03699791874,-187500.02235174447,-184377.79657576044,-187500.02235174447
1652215403.230384,-85860.33712152686,-14694.059156663317,-15263.939233295827,-15740.836052994258,-181775.94176244043,-187500.02235174447,-184376.7683955155,-187500.02235174447
1652215403.23039,-85853.67630167918,-14692.516886295902,-15262.016983272671,-15739.182023904566,-181776.72407349636,-187500.02235174447,-184377.3271891269,-187500.02235174447
1652215403.237504,-85811.11858023627,-14689.544104283346,-15258.68657334883,-15736.119834914189,-181775.96411418487,-187500.02235174447,-184376.5225263265,-187500.02235174447
1652215403.237513,-85807.65405984569,-14684.559665269813,-15253.366858168467,-15730.978933689468,-181773.14779438352,-187500.02235174447,-184373.8179652474,-187500.02235174447
1652215403.244951,-85838.83474336086,-14682.883284435664,-15251.422256400856,-15729.324904599776,-181773.84069846163,-187500.02235174447,-184374.51086932552,-187500.02235174447
1652215403.24496,-85841.24873176203,-14680.916330923597,-15249.164730210869,-15727.246192365432,-181774.06421590617,-187500.02235174447,-184374.73438677005,-187500.02235174447
1652215403.252978,-85799.49567311951,-14679.374060556182,-15247.15307320989,-15725.502756297918,-181774.71241649537,-187500.02235174447,-184375.270828637,-187500.02235174447
1652215403.252988,-85784.14002467871,-14677.362403555204,-15244.761436553174,-15723.424044063575,-181775.02534091775,-187500.02235174447,-184375.49434608154,-187500.02235174447
1652215403.259976,-85817.19825472812,-14674.702545965023,-15241.676895818342,-15720.518317284384,-181774.60065777312,-187500.02235174447,-184375.04731119244,-187500.02235174447
1652215403.267204,-85829.514065923,-14671.595653485734,-15238.324134150045,-15717.187907360543,-181773.79599497272,-187500.02235174447,-184374.1755931587,-187500.02235174447
1652215403.267219,-85791.91843174916,-14669.718106951488,-15236.111311448969,-15715.1091951262,-181774.19832637292,-187500.02235174447,-184374.53322106999,-187500.02235174447
1652215403.275942,-85765.36455933626,-14666.365345283193,-15232.400921869388,-15711.599971246716,-181773.03603566124,-187500.02235174447,-184373.23681989155,-187500.02235174447
1652215403.27595,-85792.34311489381,-14663.124342337172,-15228.802291012085,-15708.068395622779,-181771.94080018293,-187500.02235174447,-184372.27569488,-187500.02235174447
1652215403.282481,-85814.98543202704,-14661.537368480847,-15226.768282266652,-15706.324959555264,-181772.70075949442,-187500.02235174447,-184373.0803576804,-187500.02235174447
1652215403.282486,-85782.26247814448,-14658.922214379576,-15223.884907231917,-15703.709805453993,-181772.4101868165,-187500.02235174447,-184372.70037802463,-187500.02235174447
1652215403.289711,-85751.4394225406,-14655.27888003336,-15219.81688974105,-15700.044119363323,-181770.912619938,-187500.02235174447,-184371.1804594017,-187500.02235174447
1652215403.289722,-85772.18184139513,-14652.887243376643,-15216.933514706316,-15697.451317006507,-181770.77850947125,-187500.02235174447,-184370.88988672374,-187500.02235174447
1652215403.297237,-85799.80859754188,-14652.484911976448,-15216.128851905925,-15696.803116417304,-181772.63370426104,-187500.02235174447,-184372.70037802463,-187500.02235174447
1652215403.297247,-85776.27221063044,-14650.428551486559,-15213.804270482573,-15694.567941971773,-181772.8125182167,-187500.02235174447,-184372.85684023582,-187500.02235174447
1652215403.305252,-85735.54733223288,-14647.23225202945,-15210.227991369724,-15691.14812507011,-181771.87374494955,-187500.02235174447,-184371.9180669687,-187500.02235174447
1652215403.305262,-85746.7902596939,-14644.438283972537,-15207.05404365707,-15688.175343057555,-181771.31495133816,-187500.02235174447,-184371.33692161285,-187500.02235174447
1652215403.313217,-85779.91554497667,-14641.42079847107,-15203.656578499864,-15685.046098833813,-181770.59969551562,-187500.02235174447,-184370.48755532355,-187500.02235174447
1652215403.313228,-85766.28098085892,-14640.258507759394,-15202.181363365813,-15683.794401144314,-181771.78433797174,-187500.02235174447,-184371.56043905742,-187500.02235174447
1652215403.3193,-85724.0361838384,-14638.358609480692,-15199.990892409194,-15681.760392398883,-181772.2090211164,-187500.02235174447,-184371.8733634798,-187500.02235174447
1652215403.319308,-85726.3384135173,-14636.078731546251,-15197.420441796834,-15679.39110748662,-181772.09726239412,-187500.02235174447,-184371.8733634798,-187500.02235174447
1652215403.326969,-85761.3412453343,-14632.390693711126,-15193.374776050423,-15675.613662673673,-181770.68910249343,-187500.02235174447,-184370.44285183464,-187500.02235174447
1652215403.334849,-85755.08275688681,-14627.629772142145,-15188.256226570158,-15670.740982382416,-181768.2080588589,-187500.02235174447,-184367.9171047112,-187500.02235174447
1652215403.33486,-85711.69802089907,-14625.349894207704,-15185.551665491066,-15668.10347653669,-181768.14100362553,-187500.02235174447,-184367.78299424448,-187500.02235174447
1652215403.342858,-85707.20532026354,-14622.555926150791,-15182.489476500688,-15665.24245324641,-181767.6492652475,-187500.02235174447,-184367.268904122,-187500.02235174447
1652215403.342867,-85736.70962294456,-14618.957295293487,-15178.354403776457,-15661.509711922374,-181766.37521581355,-187500.02235174447,-184365.83839247684,-187500.02235174447
1652215403.349501,-85740.4870677575,-14615.828051069744,-15174.867531641428,-15658.179301998533,-181765.57055301315,-187500.02235174447,-184365.05608142092,-187500.02235174447
1652215403.349509,-85699.94100331557,-14614.554001635792,-15173.258206040646,-15656.748790353393,-181766.53167802474,-187500.02235174447,-184365.99485468803,-187500.02235174447
1652215403.357568,-85681.83609030678,-14612.65410335709,-15170.955976361749,-15654.692429863506,-181766.86695419156,-187500.02235174447,-184366.2630756215,-187500.02235174447
1652215403.357579,-85713.84378836678,-14609.770728322355,-15167.670269926819,-15651.786703084315,-181766.24110534682,-187500.02235174447,-184365.6595785212,-187500.02235174447
1652215403.365648,-85730.69700368607,-14607.624960854646,-15165.256281525646,-15649.439769916507,-181766.5093262803,-187500.02235174447,-184365.83839247684,-187500.02235174447
1652215403.365666,-85691.3802851892,-14604.160440464073,-15161.456484968245,-15645.707028592471,-181765.36938731305,-187500.02235174447,-184364.6090465318,-187500.02235174447
1652215403.372824,-85662.18890693056,-14600.874734029143,-15157.813150622029,-15642.220156457444,-181764.3635588126,-187500.02235174447,-184363.58086628688,-187500.02235174447
1652215403.372835,-85689.41333167712,-14598.84072528371,-15155.399162220856,-15640.05203724528,-181764.43061404594,-187500.02235174447,-184363.69262500913,-187500.02235174447
1652215403.380026,-85712.6814976551,-14595.778536293334,-15151.889938341374,-15636.833386043714,-181763.62595124554,-187500.02235174447,-184362.8209069754,-187500.02235174447
1652215403.380035,-85680.18206121708,-14591.46464961346,-15147.28547898358,-15632.407740641564,-181761.7484047113,-187500.02235174447,-184360.9657121856,-187500.02235174447
1652215403.387173,-85648.55434281283,-14588.827143767732,-15144.357400459934,-15629.680827818016,-181761.5025355223,-187500.02235174447,-184360.69749125213,-187500.02235174447
1652215403.395138,-85668.64856107814,-14587.195466422496,-15142.23398473668,-15627.80328128377,-181762.08368087813,-187500.02235174447,-184361.03276741898,-187500.02235174447
1652215403.395146,-85696.72235211401,-14585.541437332802,-15140.222327735702,-15625.925734749526,-181762.62012274505,-187500.02235174447,-184361.524505797,-187500.02235174447
1652215403.402309,-85675.26467743692,-14584.423850110037,-15138.85887132393,-15624.629333571118,-181763.89417217902,-187500.02235174447,-184362.7762034865,-187500.02235174447
1652215403.402318,-85632.41638331609,-14580.35583261917,-15134.366170688412,-15620.382502124608,-181762.12838436704,-187500.02235174447,-184361.0104156745,-187500.02235174447
1652215403.409812,-85642.1617438986,-14577.830085495722,-15131.393388675857,-15617.633237556605,-181761.9048669225,-187500.02235174447,-184360.6751395077,-187500.02235174447
1652215403.409821,-85676.15874721513,-14574.656137783068,-15127.906516540828,-15614.392234610586,-181761.0107971443,-187500.02235174447,-184359.9151801962,-187500.02235174447
1652215403.417818,-85662.09949995275,-14570.364602847649,-15123.27970543858,-15609.988940952891,-181759.04384363221,-187500.02235174447,-184357.79176447296,-187500.02235174447
1652215403.41783,-85617.73128720895,-14566.83302722371,-15119.32344666999,-15606.32325486222,-181757.88155292053,-187500.02235174447,-184356.54006678346,-187500.02235174447
1652215403.42574,-85617.37365929766,-14564.597852778179,-15116.641237335354,-15603.864562972138,-181757.92625640944,-187500.02235174447,-184356.62947376128,-187500.02235174447
1652215403.425748,-85653.98581671546,-14561.915643443543,-15113.690807067253,-15601.025891426312,-181757.52392500924,-187500.02235174447,-184356.24949410552,-187500.02235174447
1652215403.432301,-85651.48242133646,-14559.50165504237,-15111.030949477072,-15598.455440813952,-181757.59098024262,-187500.02235174447,-184356.18243887217,-187500.02235174447
1652215403.432307,-85607.67300220407,-14556.774742218822,-15107.834650019962,-15595.460307056941,-181757.0545383757,-187500.02235174447,-184355.69070049416,-187500.02235174447
1652215403.440502,-85598.64289744412,-14551.365620060638,-15102.090251694948,-15589.917074432025,-181753.92529415194,-187500.02235174447,-184352.53910452596,-187500.02235174447
1652215403.440515,-85627.27548209137,-14547.16349210304,-15097.530495826066,-15585.625539496607,-181752.18185808443,-187500.02235174447,-184350.63920624726,-187500.02235174447
1652215403.447283,-85635.88090370667,-14545.978849646908,-15095.89881848083,-15584.239731340378,-181753.2100383294,-187500.02235174447,-184351.64503474775,-187500.02235174447
1652215403.454512,-85596.51948172087,-14545.151835102062,-15094.736527769153,-15583.256254584343,-181754.7076052079,-187500.02235174447,-184353.14260162626,-187500.02235174447
1652215403.454517,-85575.5982489107,-14542.648439723069,-15091.942559712239,-15580.618748738618,-181754.52879125223,-187500.02235174447,-184352.98613941506,-187500.02235174447
1652215403.461914,-85605.86251090319,-14538.714532698934,-15087.65102477682,-15576.573082992207,-181752.87476216254,-187500.02235174447,-184351.28740683646,-187500.02235174447
1652215403.461922,-85623.3639268117,-14536.658172209047,-15085.16998114228,-15574.315556802221,-181753.12063135157,-187500.02235174447,-184351.4662207921,-187500.02235174447
1652215403.470101,-85587.1541007941,-14534.713570441434,-15082.912454952295,-15572.236844567877,-181753.61236972958,-187500.02235174447,-184351.93560742566,-187500.02235174447
1652215403.470113,-85559.1473649916,-14534.177128574507,-15082.040736918538,-15571.521588745307,-181755.46756451938,-187500.02235174447,-184353.74609872652,-187500.02235174447
1652215403.478094,-85582.59434492521,-14530.466738994926,-15077.838608960941,-15567.677088698994,-181754.03705287422,-187500.02235174447,-184352.2708835925,-187500.02235174447
1652215403.478104,-85609.46114176049,-14529.103282583152,-15076.072821148971,-15566.112466587123,-181755.08758486362,-187500.02235174447,-184353.2096568596,-187500.02235174447
1652215403.484615,-85579.55450767929,-14525.057616836742,-15071.915396680284,-15561.910338629526,-181753.4559075184,-187500.02235174447,-184351.6003312588,-187500.02235174447
1652215403.484623,-85545.55750436276,-14521.637799935079,-15068.137951867337,-15558.311707772222,-181752.33832029562,-187500.02235174447,-184350.43804054716,-187500.02235174447
1652215403.492787,-85562.18720223752,-14518.06152082223,-15064.114637865381,-15554.668373426006,-181751.1089743506,-187500.02235174447,-184349.1639911132,-187500.02235174447
1652215403.4928,-85589.16575779507,-14515.8263463767,-15061.521835508567,-15552.164978047012,-181751.1536778395,-187500.02235174447,-184349.1639911132,-187500.02235174447
1652215403.500652,-85567.26104822887,-14511.713625396924,-15056.962079639683,-15547.851091367138,-181749.32083479417,-187500.02235174447,-184347.17468585668,-187500.02235174447
1652215403.500661,-85525.53034133081,-14509.232581762384,-15054.212815071682,-15545.235937265867,-181749.2090760719,-187500.02235174447,-184347.0629271344,-187500.02235174447
1652215403.507877,-85533.88989375709,-14508.20440151744,-15052.871710404363,-15544.140701787557,-181750.66193946148,-187500.02235174447,-184348.38168005727,-187500.02235174447
1652215403.514311,-85569.18329825203,-14505.835116605178,-15050.144797580815,-15541.659658153018,-181750.61723597258,-187500.02235174447,-184348.26992133498,-187500.02235174447
1652215403.514322,-85560.06378651426,-14503.801107859745,-15047.663753946275,-15539.290373240754,-181750.9525121394,-187500.02235174447,-184348.5604940129,-187500.02235174447
1652215403.522318,-85515.31559411474,-14499.844849091156,-15043.327515521947,-15535.289410983254,-181749.3431865386,-187500.02235174447,-184346.92881666767,-187500.02235174447
1652215403.522326,-85511.1358179016,-14496.313273467216,-15039.415960242268,-15531.579021403673,-181748.0914888491,-187500.02235174447,-184345.54300851145,-187500.02235174447
1652215403.530356,-85545.8927805296,-14493.452250176937,-15036.197309040703,-15528.516832413297,-181747.5997504711,-187500.02235174447,-184345.07362187788,-187500.02235174447
1652215403.530362,-85544.35051016218,-14488.892494308055,-15031.324628749446,-15523.890021311048,-181745.5880934701,-187500.02235174447,-184343.03961313245,-187500.02235174447
1652215403.537495,-85502.21747186393,-14486.746726840345,-15028.821233370452,-15521.54308814324,-181745.7892591702,-187500.02235174447,-184343.21842708808,-187500.02235174447
1652215403.537507,-85494.90845142704,-14485.942064039955,-15027.63659091432,-15520.64901836503,-181747.37623302653,-187500.02235174447,-184344.7159939666,-187500.02235174447
1652215403.544876,-85524.52451283032,-14483.528075638782,-15024.708512390676,-15518.07856775267,-181747.21977081537,-187500.02235174447,-184344.62658698877,-187500.02235174447
1652215403.544885,-85534.58279783522,-14481.225845959885,-15021.981599567129,-15515.552820629218,-181747.2421225598,-187500.02235174447,-184344.58188349986,-187500.02235174447
1652215403.552987,-85496.56248051673,-14480.15296222603,-15020.64049489981,-15514.278771195266,-181748.6502824605,-187500.02235174447,-184345.9006364227,-187500.02235174447
1652215403.552998,-85471.05914009323,-14475.190874956952,-15015.320779719446,-15509.249628692822,-181745.9904248703,-187500.02235174447,-184343.24077883255,-187500.02235174447
1652215403.560912,-85498.64119275108,-14471.793409799744,-15011.610390139866,-15505.762756557795,-181744.98459636982,-187500.02235174447,-184342.2125985876,-187500.02235174447
1652215403.560929,-85519.62948079461,-14470.675822576979,-15010.224581983637,-15504.421651890476,-181746.23629405932,-187500.02235174447,-184343.4642962771,-187500.02235174447
1652215403.567034,-85485.61012573364,-14468.418296386993,-15007.49766916009,-15501.962960000392,-181746.3927562705,-187500.02235174447,-184343.41959278818,-187500.02235174447
1652215403.567043,-85453.78124162927,-14466.205473685917,-15004.882515058818,-15499.548971599219,-181746.45981150388,-187500.02235174447,-184343.48664802156,-187500.02235174447
1652215403.574851,-85477.2282215629,-14464.417334129494,-15002.736747591109,-15497.626721576062,-181747.08566034862,-187500.02235174447,-184344.13484861076,-187500.02235174447
1652215403.5825,-85501.99395441938,-14459.052915460219,-14996.947645777183,-15492.083488951146,-181744.0458231027,-187500.02235174447,-184341.02795613147,-187500.02235174447
1652215403.58251,-85475.88711689558,-14456.124836936575,-14993.661939342253,-15488.954244727403,-181743.62113995806,-187500.02235174447,-184340.4021072867,-187500.02235174447
1652215403.590651,-85442.53831416825,-14454.67197354698,-14991.851448041374,-15487.367270871076,-181744.5375614807,-187500.02235174447,-184341.4079357872,-187500.02235174447
1652215403.590661,-85456.95518934193,-14452.794427012734,-14989.571570106933,-15485.377965614554,-181744.87283764756,-187500.02235174447,-184341.89967416524,-187500.02235174447
1652215403.597348,-85485.8336431782,-14451.229804900862,-14987.604616594866,-15483.54512256922,-181745.63279695902,-187500.02235174447,-184342.59257824335,-187500.02235174447
1652215403.597362,-85467.81813714722,-14447.698229276924,-14983.715413059643,-15479.834732989639,-181744.51520973627,-187500.02235174447,-184341.3632322983,-187500.02235174447
1652215403.605279,-85426.04272676024,-14446.088903676142,-14981.77081129203,-15478.046593433213,-181745.40927951448,-187500.02235174447,-184342.19024684315,-187500.02235174447
1652215403.60532,-85431.07186926268,-14444.770150753278,-14979.937968246695,-15476.549026554709,-181746.48216324832,-187500.02235174447,-184343.17372359917,-187500.02235174447
1652215403.613348,-85467.08052958018,-14442.624383285569,-14977.501628101067,-15474.336203853632,-181746.7056806929,-187500.02235174447,-184343.37488929927,-187500.02235174447
1652215403.613363,-85459.1233085541,-14438.086979161142,-14972.67365129872,-15469.575282284652,-181744.5375614807,-187500.02235174447,-184341.251473576,-187500.02235174447
1652215403.619876,-85414.82215104367,-14434.398941326017,-14968.605633807854,-15465.708430493883,-181743.30821553568,-187500.02235174447,-184339.93272065316,-187500.02235174447
1652215403.619885,-85406.2614329173,-14431.04617965772,-14964.805837250453,-15462.176854869946,-181742.28003529072,-187500.02235174447,-184338.94924389714,-187500.02235174447
1652215403.627929,-85439.92316006699,-14427.13462437804,-14960.603709292855,-15458.108837379079,-181740.6036544566,-187500.02235174447,-184337.25051131853,-187500.02235174447
1652215403.627937,-85444.10293628013,-14424.8547464436,-14957.921499958218,-15455.605442000086,-181740.71541317887,-187500.02235174447,-184337.27286306297,-187500.02235174447
1652215403.634882,-85402.75220903782,-14423.111310376085,-14955.798084234964,-15453.705543721384,-181741.40831725698,-187500.02235174447,-184337.83165667436,-187500.02235174447
1652215403.642805,-85391.41987459897,-14421.144356864019,-14953.473502811612,-15451.649183231495,-181741.900055635,-187500.02235174447,-184338.27869156346,-187500.02235174447
1652215403.642815,-85419.58307261266,-14418.216278340375,-14950.165444632226,-15448.654049474484,-181741.36361376807,-187500.02235174447,-184337.67519446317,-187500.02235174447
1652215403.649998,-85433.70937510842,-14417.076339373154,-14948.667877753722,-15447.290593062711,-181742.5035527353,-187500.02235174447,-184338.81513343038,-187500.02235174447
1652215403.650006,-85394.77263626727,-14413.298894560206,-14944.5775085184,-15443.2449273163,-181741.0506893457,-187500.02235174447,-184337.4069735297,-187500.02235174447
1652215403.657603,-85367.1011766316,-14410.37081603656,-14941.202395105649,-15440.160386581469,-181740.51424747877,-187500.02235174447,-184336.87053166277,-187500.02235174447
1652215403.657612,-85394.92909847846,-14408.493269502314,-14939.011924149028,-15438.1934330694,-181741.11774457907,-187500.02235174447,-184337.42932527416,-187500.02235174447
1652215403.665502,-85417.8172848007,-14406.414557267972,-14936.5755840034,-15436.002962112781,-181741.5871312126,-187500.02235174447,-184337.76460144098,-187500.02235174447
1652215403.665512,-85386.36838035207,-14404.782879922734,-14934.496871769057,-15434.058360345169,-181742.3023870352,-187500.02235174447,-184338.34574679684,-187500.02235174447
1652215403.672479,-85351.41025202397,-14401.430118254439,-14930.875889167297,-15430.683246932418,-181741.2965585347,-187500.02235174447,-184337.42932527416,-187500.02235174447
1652215403.672487,-85370.58804876663,-14397.675025185947,-14926.763168187521,-15426.794043397194,-181739.95545386738,-187500.02235174447,-184336.08822060685,-187500.02235174447
1652215403.680085,-85399.13122643605,-14393.897580372999,-14922.561040229923,-15422.81543288415,-181738.5919974556,-187500.02235174447,-184334.63535721725,-187500.02235174447
1652215403.680093,-85375.9971709248,-14391.37183324955,-14919.521202984,-15420.043816571691,-181738.45788698888,-187500.02235174447,-184334.41183977269,-187500.02235174447
1652215403.688208,-85339.36266176256,-14390.254246026785,-14918.023636105496,-15418.747415393284,-181739.70958467838,-187500.02235174447,-184335.66353746218,-187500.02235174447
1652215403.688218,-85350.71734794586,-14386.901484358488,-14914.357950014824,-15415.19348802489,-181738.70375617789,-187500.02235174447,-184334.63535721725,-187500.02235174447
1652215403.695287,-85378.2546971148,-14382.297025000695,-14909.418214490202,-15410.521973433732,-181736.58034045465,-187500.02235174447,-184332.46723800508,-187500.02235174447
1652215403.702262,-85364.30720857468,-14380.08420229962,-14906.825412133387,-15408.130336777012,-181736.75915441028,-187500.02235174447,-184332.60134847183,-187500.02235174447
1652215403.702276,-85320.83306560911,-14377.737269131812,-14904.009092332017,-15405.42577569792,-181736.82620964365,-187500.02235174447,-184332.44488626064,-187500.02235174447
1652215403.709914,-85319.71547838635,-14373.043402796198,-14898.890542851752,-15400.486040173299,-181734.389869498,-187500.02235174447,-184330.008546115,-187500.02235174447
1652215403.709923,-85354.62890322553,-14368.953033560878,-14894.554304427422,-15396.328615704611,-181732.7358404083,-187500.02235174447,-184328.37686876976,-187500.02235174447
1652215403.717868,-85354.4500892699,-14369.17655100543,-14894.464897449601,-15396.418022682432,-181735.52980846525,-187500.02235174447,-184331.0590781044,-187500.02235174447
1652215403.717876,-85311.17711200441,-14368.08131552712,-14893.012034060006,-15395.076918015113,-181736.80385789918,-187500.02235174447,-184332.37783102726,-187500.02235174447
1652215403.725729,-85299.9341845434,-14364.41562943645,-14888.944016569141,-15391.344176691078,-181735.4851049763,-187500.02235174447,-184331.14848508223,-187500.02235174447
1652215403.725738,-85333.86413262655,-14360.660536367957,-14884.831295589363,-15387.365566178032,-181734.16635205346,-187500.02235174447,-184329.78502867045,-187500.02235174447
1652215403.732318,-85340.27908328523,-14357.911271799956,-14881.634996132256,-15384.348080676566,-181733.80872414217,-187500.02235174447,-184329.40504901472,-187500.02235174447
1652215403.732327,-85298.9283560429,-14355.273765954229,-14878.550455397422,-15381.621167853018,-181733.6969654199,-187500.02235174447,-184329.18153157015,-187500.02235174447
1652215403.740461,-85284.71264656933,-14353.060943253155,-14876.002356529518,-15379.363641663032,-181733.92048286446,-187500.02235174447,-184329.40504901472,-187500.02235174447
1652215403.740469,-85313.74756261677,-14351.60807986356,-14874.236568717548,-15377.642557339974,-181734.7922008982,-187500.02235174447,-184330.16500832618,-187500.02235174447
1652215403.748405,-85327.44918196788,-14347.405951905961,-14869.766219826488,-15373.306318915646,-181733.07111657516,-187500.02235174447,-184328.37686876976,-187500.02235174447
1652215403.748414,-85288.95947801584,-14344.120245471031,-14866.122885480272,-15369.931205502893,-181732.31115726367,-187500.02235174447,-184327.59455771383,-187500.02235174447
1652215403.755554,-85260.10337592404,-14341.907422769955,-14863.440676145636,-15367.472513612809,-181732.55702645268,-187500.02235174447,-184327.68396469165,-187500.02235174447
1652215403.762018,-85287.86424253753,-14341.683905325403,-14862.747772067522,-15366.980775234793,-181734.52397996475,-187500.02235174447,-184329.67326994817,-187500.02235174447
1652215403.762027,-85312.04883003817,-14338.755826801756,-14859.395010399225,-15363.963289733327,-181733.89813112,-187500.02235174447,-184329.06977284787,-187500.02235174447
1652215403.770199,-85281.53869885668,-14335.760693044745,-14856.086952219839,-15360.94580423186,-181733.47344797535,-187500.02235174447,-184328.53333098095,-187500.02235174447
1652215403.770213,-85246.0217769172,-14333.860794766046,-14853.762370796487,-15358.80003676415,-181733.96518635337,-187500.02235174447,-184328.98036587005,-187500.02235174447
1652215403.778046,-85264.41726260392,-14331.200937175863,-14850.811940528387,-15356.050772196148,-181733.7416689088,-187500.02235174447,-184328.80155191442,-187500.02235174447
1652215403.778055,-85296.42496066392,-14329.189280174885,-14848.442655616123,-15353.837949495071,-181734.16635205346,-187500.02235174447,-184329.13682808125,-187500.02235174447
1652215403.784696,-85274.31908539761,-14326.55177432916,-14845.447521859112,-15350.999277949248,-181734.00988984227,-187500.02235174447,-184328.98036587005,-187500.02235174447
1652215403.784704,-85235.62821574548,-14323.958971972344,-14842.474739846557,-15348.250013381245,-181733.89813112,-187500.02235174447,-184328.73449668105,-187500.02235174447
1652215403.792602,-85242.49020129326,-14318.393387602973,-14836.573879310356,-15342.572670289597,-181730.7465351518,-187500.02235174447,-184325.58290071285,-187500.02235174447
1652215403.792612,-85269.53581208418,-14312.961913700334,-14830.874184474253,-15336.98473417577,-181727.66199441697,-187500.02235174447,-184322.54306346693,-187500.02235174447
1652215403.800706,-85259.14225091247,-14311.531402055194,-14828.974286195551,-15335.375408574988,-181728.6901746619,-187500.02235174447,-184323.54889196742,-187500.02235174447
1652215403.800716,-85216.5621777251,-14310.21264913233,-14827.253201872492,-15333.877841696483,-181729.87481711805,-187500.02235174447,-184324.59942395682,-187500.02235174447
1652215403.807767,-85214.43876200185,-14306.837535719578,-14823.520460548456,-15330.346266072544,-181728.891340362,-187500.02235174447,-184323.57124371186,-187500.02235174447
1652215403.807776,-85249.73216649677,-14303.194201373364,-14819.452443057591,-15326.501766026231,-181727.66199441697,-187500.02235174447,-184322.34189776683,-187500.02235174447
1652215403.814375,-85250.71564325281,-14303.373015329005,-14819.273629101948,-15326.501766026231,-181730.23244502934,-187500.02235174447,-184324.91234837918,-187500.02235174447
1652215403.814387,-85206.6156514425,-14300.422585060905,-14815.965570922563,-15323.372521802488,-181729.7854101402,-187500.02235174447,-184324.53236872345,-187500.02235174447
1652215403.822217,-85192.46699720228,-14296.466326292317,-14811.562277264868,-15319.259800822712,-181728.31019500617,-187500.02235174447,-184322.92304312266,-187500.02235174447
1652215403.830364,-85225.97226214079,-14293.11356462402,-14807.807184196376,-15315.616466476496,-181727.28201476124,-187500.02235174447,-184321.8054558999,-187500.02235174447
1652215403.830373,-85234.75649771173,-14289.894913422457,-14804.208553339071,-15312.286056552657,-181726.52205544975,-187500.02235174447,-184321.00079309952,-187500.02235174447
1652215403.837477,-85194.67981990335,-14287.59268374356,-14801.503992259979,-15309.760309429206,-181726.63381417203,-187500.02235174447,-184321.09020007733,-187500.02235174447
1652215403.837487,-85178.60891564,-14285.692785464858,-14799.224114325538,-15307.681597194864,-181727.1926077834,-187500.02235174447,-184321.58193845535,-187500.02235174447
1652215403.844974,-85203.19583454083,-14280.909512151422,-14793.993806122997,-15302.831268648062,-181724.75626763777,-187500.02235174447,-184319.12324656526,-187500.02235174447
1652215403.844984,-85219.31144229311,-14278.651985961436,-14791.199838066083,-15300.21611454679,-181724.80097112668,-187500.02235174447,-184319.23500528754,-187500.02235174447
1652215403.85282,-85185.22503199877,-14277.40028827194,-14789.679919443122,-15298.785602901651,-181726.142075794,-187500.02235174447,-184320.46435123257,-187500.02235174447
1652215403.852832,-85155.02782523964,-14275.746259182246,-14787.578855464322,-15296.796297645129,-181726.90203510548,-187500.02235174447,-184321.11255182177,-187500.02235174447
1652215403.860892,-85177.6030871395,-14272.102924836032,-14783.555541462369,-15293.063556321093,-181725.6950409049,-187500.02235174447,-184319.9055576212,-187500.02235174447
1652215403.860904,-85204.06755257459,-14269.48777073476,-14780.605111194267,-15290.336643497545,-181725.51622694926,-187500.02235174447,-184319.79379889893,-187500.02235174447
1652215403.867704,-85175.32320920506,-14266.090305577554,-14776.850018125775,-15286.69330915133,-181724.4880467043,-187500.02235174447,-184318.69856342062,-187500.02235174447
1652215403.867717,-85137.05702269758,-14262.357564253518,-14772.759648890455,-15282.871160849472,-181723.28105250373,-187500.02235174447,-184317.37981049775,-187500.02235174447
1652215403.875656,-85152.68089207183,-14259.831817130069,-14769.809218622355,-15280.099544537014,-181723.1916455259,-187500.02235174447,-184317.29040351993,-187500.02235174447
1652215403.875664,-85183.83922384253,-14257.417828728894,-14767.104657543261,-15277.506742180198,-181723.30340424817,-187500.02235174447,-184317.33510700884,-187500.02235174447
1652215403.882534,-85164.86259279998,-14254.422694971883,-14763.863654597242,-15274.489256678733,-181722.90107284798,-187500.02235174447,-184316.86572037527,-187500.02235174447
1652215403.890673,-85126.48464757022,-14252.902776348923,-14762.053163296363,-15272.812875844584,-181723.7951426262,-187500.02235174447,-184317.69273492013,-187500.02235174447
1652215403.890682,-85134.06188894056,-14250.600546670026,-14759.214491750537,-15270.264776976679,-181723.86219785956,-187500.02235174447,-184317.69273492013,-187500.02235174447
1652215403.897266,-85163.27561894365,-14246.756046623714,-14754.96766030403,-15266.219111230268,-181722.45403795887,-187500.02235174447,-184316.262223275,-187500.02235174447
1652215403.897276,-85152.30091241609,-14241.704552376814,-14749.62559337921,-15261.033506516636,-181719.88358734653,-187500.02235174447,-184313.62471742925,-187500.02235174447
1652215403.905302,-85109.1396938729,-14239.402322697917,-14746.898680555663,-15258.574814626554,-181720.06240130216,-187500.02235174447,-184313.73647615153,-187500.02235174447
1652215403.905311,-85104.87051068194,-14237.211851741296,-14744.283526454394,-15256.183177969835,-181720.37532572454,-187500.02235174447,-184314.004697085,-187500.02235174447
1652215403.913312,-85138.93456923182,-14234.015552284189,-14740.77430257491,-15252.741009323718,-181719.5930146686,-187500.02235174447,-184313.20003428461,-187500.02235174447
1652215403.913323,-85139.78393552112,-14230.349866193517,-14736.706285084045,-15248.87415753295,-181718.49777919028,-187500.02235174447,-184311.97068833956,-187500.02235174447
1652215403.920229,-85097.36032454495,-14228.315857448086,-14734.269944938416,-15246.616631342964,-181718.94481407938,-187500.02235174447,-184312.41772322866,-187500.02235174447
1652215403.920237,-85082.831690649,-14226.86299405849,-14732.43710189308,-15245.052009231093,-181719.81653211315,-187500.02235174447,-184313.3117930069,-187500.02235174447
1652215403.927849,-85117.67806025482,-14225.790110324635,-14730.96188675903,-15243.822663286051,-181721.26939550275,-187500.02235174447,-184314.69760116312,-187500.02235174447
1652215403.92786,-85128.49630457119,-14221.878555044957,-14726.603296590245,-15239.68759056182,-181719.77182862425,-187500.02235174447,-184313.1553307957,-187500.02235174447
1652215403.936061,-85088.75490292966,-14217.966999765278,-14722.490575610469,-15235.73133179323,-181718.38602046802,-187500.02235174447,-184311.79187438393,-187500.02235174447
1652215403.936076,-85069.08536780899,-14215.351845664007,-14719.450738364547,-15232.95971548077,-181718.31896523465,-187500.02235174447,-184311.6130604283,-187500.02235174447
1652215403.942775,-85092.95703088725,-14212.736691562735,-14716.43325286308,-15230.21045091277,-181718.16250302346,-187500.02235174447,-184311.36719123926,-187500.02235174447
1652215403.950061,-85113.00654566367,-14211.105014217499,-14714.466299351014,-15228.377607867433,-181719.01186931276,-187500.02235174447,-184312.19420578412,-187500.02235174447
1652215403.950072,-85080.30594352556,-14209.026301983155,-14712.05231094984,-15226.142433421903,-181719.36949722405,-187500.02235174447,-184312.5071302065,-187500.02235174447
1652215403.95757,-85047.56063789852,-14207.014644982177,-14709.638322548668,-15223.884907231917,-181719.81653211315,-187500.02235174447,-184312.86475811776,-187500.02235174447
1652215403.957579,-85067.69955965276,-14203.259551913687,-14705.592656802257,-15220.06275893006,-181718.58718616812,-187500.02235174447,-184311.63541217273,-187500.02235174447
1652215403.965485,-85092.3311820425,-14197.112822188476,-14699.088299165762,-15213.737215249208,-181714.94385182188,-187500.02235174447,-184307.99207782652,-187500.02235174447
1652215403.965494,-85067.61015267494,-14194.497668087206,-14696.09316540875,-15210.943247192294,-181714.78738961072,-187500.02235174447,-184307.83561561533,-187500.02235174447
1652215403.972461,-85030.28273943458,-14193.648301797904,-14694.95322644153,-15209.95977043626,-181716.35201172257,-187500.02235174447,-184309.3555342383,-187500.02235174447
1652215403.972472,-85041.03392851757,-14190.183781407331,-14691.086374650762,-15206.316436090046,-181715.39088671101,-187500.02235174447,-184308.3497057378,-187500.02235174447
1652215403.980127,-85074.7850626451,-14188.172124406354,-14688.739441482956,-15204.19302036679,-181716.03908730022,-187500.02235174447,-184308.93085109364,-187500.02235174447
1652215403.980135,-85057.1271845254,-14183.701775515292,-14683.866761191699,-15199.543857520088,-181713.98272681033,-187500.02235174447,-184306.98624932603,-187500.02235174447
1652215403.988124,-85015.77645728308,-14180.259606869175,-14679.910502423108,-15195.922874918328,-181712.95454656536,-187500.02235174447,-184305.89101384772,-187500.02235174447
1652215403.988133,-85021.20793118572,-14178.292653357108,-14677.585920999756,-15193.799459195074,-181713.51334017675,-187500.02235174447,-184306.33804873683,-187500.02235174447
1652215403.99608,-85052.36626295642,-14176.079830656032,-14675.015470387396,-15191.407822538356,-181713.78156111023,-187500.02235174447,-184306.58391792583,-187500.02235174447
1652215403.99609,-85045.86190531992,-14172.056516654076,-14670.589824985245,-15187.228046325214,-181712.28399423172,-187500.02235174447,-184305.01929581395,-187500.02235174447
1652215404.002189,-85000.24199488664,-14167.697926485293,-14665.918310394087,-15182.690642200787,-181710.31704071964,-187500.02235174447,-184303.14174927972,-187500.02235174447
1652215404.011353,-84990.69780000423,-14164.635737494915,-14662.274976047871,-15179.382584021401,-181709.64648838597,-187500.02235174447,-184302.42649345714,-187500.02235174447
1652215404.011368,-85025.23124518768,-14161.484141526716,-14658.653993446113,-15175.940415375284,-181708.99828779677,-187500.02235174447,-184301.62183065675,-187500.02235174447
1652215404.017889,-85030.26038769013,-14158.980746147723,-14655.90472887811,-15173.325261274013,-181709.13239826352,-187500.02235174447,-184301.73358937903,-187500.02235174447
1652215404.017898,-84988.99906742563,-14157.393772291396,-14653.915423621587,-15171.447714739767,-181710.07117153064,-187500.02235174447,-184302.6053074128,-187500.02235174447
1652215404.025658,-84971.09532011692,-14155.292708312596,-14651.479083475959,-15169.301947272057,-181710.51820641974,-187500.02235174447,-184303.007638813,-187500.02235174447
1652215404.025664,-85003.37123911039,-14152.901071655879,-14648.573356696768,-15166.731496659697,-181710.60761339756,-187500.02235174447,-184303.02999055744,-187500.02235174447
1652215404.032382,-85018.68218406227,-14149.74947568768,-14645.108836306195,-15163.356383246946,-181709.91470931945,-187500.02235174447,-184302.2476795015,-187500.02235174447
1652215404.032391,-84980.03601789904,-14146.217900063742,-14641.152577537607,-15159.66834541182,-181708.88652907452,-187500.02235174447,-184301.2642027455,-187500.02235174447
1652215404.040458,-84956.83490715444,-14143.826263407025,-14638.51507169188,-15157.187301777281,-181708.97593605233,-187500.02235174447,-184301.3536097233,-187500.02235174447
1652215404.040467,-84979.61133475439,-14140.629963949916,-14634.961144323486,-15153.745133131164,-181708.41714244094,-187500.02235174447,-184300.57129866735,-187500.02235174447
1652215404.048339,-85001.20311989821,-14138.46184473775,-14632.390693711126,-15151.487606941177,-181708.73006686333,-187500.02235174447,-184300.9065748342,-187500.02235174447
1652215404.04835,-84970.6035817389,-14136.450187736773,-14630.043760543318,-15149.297135984558,-181709.19945349687,-187500.02235174447,-184301.44301670112,-187500.02235174447
1652215404.055446,-84937.12066854486,-14135.578469703016,-14628.814414598277,-15148.268955739613,-181710.9428895644,-187500.02235174447,-184303.007638813,-187500.02235174447
1652215404.055456,-84956.79020366553,-14133.633867935405,-14626.400426197104,-15146.167891760815,-181711.36757270904,-187500.02235174447,-184303.4546737021,-187500.02235174447
1652215404.061971,-84986.22745111317,-14129.811719633546,-14622.198298239506,-15142.14457775886,-181710.04881978617,-187500.02235174447,-184302.13592077923,-187500.02235174447
1652215404.061989,-84962.98163687965,-14126.883641109902,-14618.912591804576,-15138.992981790661,-181709.6911918749,-187500.02235174447,-184301.5547754234,-187500.02235174447
1652215404.070147,-84921.38504044832,-14124.492004453185,-14616.208030725484,-15136.355475944934,-181709.64648838597,-187500.02235174447,-184301.57712716784,-187500.02235174447
1652215404.078034,-84929.96811031915,-14120.64750440687,-14612.050606256797,-15132.421568920801,-181708.35008720757,-187500.02235174447,-184300.3477812228,-187500.02235174447
1652215404.078046,-84962.10991884589,-14115.953638071256,-14606.932056776532,-15127.571240373998,-181706.27137497324,-187500.02235174447,-184298.17966201063,-187500.02235174447
1652215404.085097,-84951.60459895189,-14115.730120626704,-14606.328559676238,-15127.101853740438,-181708.48419767432,-187500.02235174447,-184300.39248471172,-187500.02235174447
1652215404.085108,-84913.83015082242,-14116.601838660461,-14606.88735328762,-15127.839461307463,-181711.85931108706,-187500.02235174447,-184303.74524638001,-187500.02235174447
1652215404.092726,-84915.79710433449,-14113.584353158994,-14603.445184641503,-15124.777272317086,-181711.36757270904,-187500.02235174447,-184303.18645276863,-187500.02235174447
1652215404.092738,-84945.50257271559,-14109.203411245753,-14598.639559583613,-15120.150461214836,-181709.53472966372,-187500.02235174447,-184301.2642027455,-187500.02235174447
1652215404.100665,-84942.7980116365,-14106.834126333491,-14595.934998504521,-15117.535307113565,-181709.64648838597,-187500.02235174447,-184301.44301670112,-187500.02235174447
1652215404.100676,-84896.06051398045,-14102.475536164706,-14591.26348391336,-15113.109661711414,-181707.94775580737,-187500.02235174447,-184299.6995806336,-187500.02235174447
1652215404.107784,-84883.47648185212,-14098.340463440474,-14586.659024555567,-15108.661664564808,-181706.20431973986,-187500.02235174447,-184297.9114410772,-187500.02235174447
1652215404.107798,-84917.07115376844,-14094.630073860893,-14582.546303575791,-15104.727757540675,-181704.90791856145,-187500.02235174447,-184296.5926881543,-187500.02235174447
1652215404.115405,-84923.46375268266,-14090.673815092305,-14578.232416895917,-15100.547981327532,-181703.41035168295,-187500.02235174447,-184295.07276953137,-187500.02235174447
1652215404.115414,-84881.55423182897,-14087.36575691292,-14574.49967557188,-15097.12816442587,-181702.67274411593,-187500.02235174447,-184294.2904584754,-187500.02235174447
1652215404.123427,-84859.4260048182,-14083.677719077794,-14570.364602847649,-15093.261312635103,-181701.51045340425,-187500.02235174447,-184292.97170555257,-187500.02235174447
1652215404.123441,-84890.94196450019,-14080.906102765335,-14567.324765601727,-15090.422641089279,-181701.2869359597,-187500.02235174447,-184292.77053985247,-187500.02235174447
1652215404.130299,-84910.94677578768,-14081.30843416553,-14567.391820835093,-15090.579103300466,-181704.17031099444,-187500.02235174447,-184295.63156314273,-187500.02235174447
1652215404.137344,-84873.23938289158,-14078.40270738634,-14564.083762655708,-15087.472210821177,-181703.87973831652,-187500.02235174447,-184295.11747302028,-187500.02235174447
1652215404.137352,-84848.58540875738,-14075.988718985167,-14561.245091109884,-15084.834704975452,-181703.94679354987,-187500.02235174447,-184295.251583487,-187500.02235174447
1652215404.144975,-84868.74668225607,-14071.45131486074,-14556.26065209635,-15080.073783406471,-181701.91278480444,-187500.02235174447,-184293.12816776373,-187500.02235174447
1652215404.144986,-84890.91961275574,-14068.344422381453,-14552.818483450234,-15076.74337348263,-181701.26458421524,-187500.02235174447,-184292.41291194118,-187500.02235174447
1652215404.152955,-84861.16944088571,-14065.058715946523,-14549.130445615107,-15073.278853092057,-181700.48227315932,-187500.02235174447,-184291.6529526297,-187500.02235174447
1652215404.152964,-84824.55728346793,-14062.555320567528,-14546.180015347007,-15070.730754224152,-181700.54932839266,-187500.02235174447,-184291.6529526297,-187500.02235174447
1652215404.160911,-84841.99164414307,-14060.007221699623,-14543.274288567816,-15068.115600122883,-181700.61638362604,-187500.02235174447,-184291.63060088523,-187500.02235174447
1652215404.160919,-84872.25590613556,-14056.609756542417,-14539.407436777048,-15064.382858798846,-181699.65525861445,-187500.02235174447,-184290.71417936258,-187500.02235174447
1652215404.167456,-84849.01009190203,-14052.1170559069,-14534.601811719158,-15059.733695952142,-181697.6883051024,-187500.02235174447,-184288.7025223616,-187500.02235174447
1652215404.167465,-84808.17345478218,-14050.507730306117,-14532.701913440456,-15057.878501162351,-181698.62707836952,-187500.02235174447,-184289.5518886509,-187500.02235174447
1652215404.175748,-84815.05779207443,-14047.602003526927,-14529.438558749982,-15054.79396042752,-181698.2470987138,-187500.02235174447,-184289.26131597298,-187500.02235174447
1652215404.175761,-84850.775879714,-14045.769160481592,-14527.15868081554,-15052.804655170996,-181698.9400027919,-187500.02235174447,-184289.9542200511,-187500.02235174447
1652215404.183611,-84840.82935343139,-14043.39987556933,-14524.409416247538,-15050.234204558636,-181699.141168492,-187500.02235174447,-184290.0436270289,-187500.02235174447
1652215404.183621,-84797.73519012156,-14039.734189478659,-14520.341398756671,-15046.45675974569,-181697.91182254694,-187500.02235174447,-184288.83663282832,-187500.02235174447
1652215404.190599,-84797.17639651017,-14035.576765009971,-14515.692235909968,-15041.986410854628,-181696.146034735,-187500.02235174447,-184287.0931967608,-187500.02235174447
1652215404.197219,-84827.64182420276,-14032.91690741979,-14512.63004691959,-15039.25949803108,-181696.12368299052,-187500.02235174447,-184286.86967931627,-187500.02235174447
1652215404.197233,-84826.9265683802,-14030.569974251983,-14509.880782351589,-15036.621992185354,-181696.36955217953,-187500.02235174447,-184287.16025199418,-187500.02235174447
1652215404.20531,-84784.79353008194,-14029.497090518129,-14508.427918961994,-15035.392646240312,-181697.86711905804,-187500.02235174447,-184288.5013566615,-187500.02235174447
1652215404.205325,-84770.57782060836,-14026.367846294386,-14504.873991593598,-15032.17399503875,-181697.35302893555,-187500.02235174447,-184287.80845258338,-187500.02235174447
1652215404.213325,-84803.34547797985,-14022.72451194817,-14500.91773282501,-15028.329494992435,-181696.2354417128,-187500.02235174447,-184286.6461618717,-187500.02235174447
1652215404.213335,-84814.40959148522,-14020.846965413924,-14498.72726186839,-15026.250782758092,-181696.883642302,-187500.02235174447,-184287.36141769428,-187500.02235174447
1652215404.22018,-84773.77412006547,-14017.315389789987,-14494.748651355345,-15022.518041434056,-181695.7884068237,-187500.02235174447,-184286.2438304715,-187500.02235174447
1652215404.220185,-84749.58953256483,-14013.269724043575,-14490.233598975374,-15018.293561732002,-181694.2461364563,-187500.02235174447,-184284.67920835962,-187500.02235174447
1652215404.227776,-84776.07634974437,-14008.084119329944,-14484.533904139269,-15012.862087829362,-181691.5415753772,-187500.02235174447,-184282.0417025139,-187500.02235174447
1652215404.227789,-84794.62829764227,-14005.312503017487,-14481.494066893349,-15009.799898838986,-181691.31805793263,-187500.02235174447,-184281.8405368138,-187500.02235174447
1652215404.235864,-84761.41360538169,-14004.172564050266,-14479.951796525931,-15008.503497660578,-181692.7932730667,-187500.02235174447,-184283.18164148112,-187500.02235174447
1652215404.235874,-84736.11143065827,-14003.278494272054,-14478.700098836434,-15007.452965671178,-181694.4920056453,-187500.02235174447,-184284.746263593,-187500.02235174447
1652215404.243884,-84759.29018965844,-14003.30084601651,-14478.275415691784,-15007.274151715535,-181696.9954010243,-187500.02235174447,-184287.3390659498,-187500.02235174447
1652215404.243893,-84782.84892831433,-13999.881029114847,-14474.475619134382,-15003.697872602686,-181696.12368299052,-187500.02235174447,-184286.37794093823,-187500.02235174447
1652215404.249874,-84755.93742799014,-13996.90824710229,-14471.167560954997,-15000.546276634488,-181695.6989998459,-187500.02235174447,-184285.9979612825,-187500.02235174447
1652215404.257468,-84718.83353219433,-13994.740127890127,-14468.619462087092,-14998.244046955591,-181696.07897950162,-187500.02235174447,-184286.31088570488,-187500.02235174447
1652215404.25748,-84731.81989572286,-13991.454421455195,-14464.8643690186,-14994.757174820565,-181695.3413719346,-187500.02235174447,-184285.4391676711,-187500.02235174447
1652215404.265516,-84760.69834955911,-13986.134706274834,-14459.18702592695,-14989.236293940103,-181692.5474038777,-187500.02235174447,-184282.62284786976,-187500.02235174447
1652215404.265523,-84742.07934642784,-13982.558427161985,-14455.230767158362,-14985.369442149335,-181691.4298166549,-187500.02235174447,-184281.46055715808,-187500.02235174447
1652215404.272602,-84697.12998832822,-13977.730450359637,-14450.04516244473,-14980.295596157981,-181689.01582825373,-187500.02235174447,-184279.02421701245,-187500.02235174447
1652215404.272615,-84702.9414418866,-13976.679918370239,-14448.52524382177,-14979.043898468484,-181690.647505599,-187500.02235174447,-184280.56648737987,-187500.02235174447
1652215404.280062,-84739.84417198232,-13975.584682891928,-14447.09473217663,-14977.76984903453,-181692.10036898858,-187500.02235174447,-184281.9522955361,-187500.02235174447
1652215404.280072,-84733.8986079572,-13973.9977090356,-14445.23953738684,-14976.048764711471,-181693.06149400014,-187500.02235174447,-184282.82401356986,-187500.02235174447
1652215404.28812,-84691.5867557033,-13970.734354345126,-14441.439740829437,-14972.561892576445,-181692.16742422193,-187500.02235174447,-184282.01935076946,-187500.02235174447
1652215404.288128,-84687.89871786819,-13967.2474822101,-14437.52818554976,-14968.96326171914,-181691.11689223253,-187500.02235174447,-184281.1029292468,-187500.02235174447
1652215404.296147,-84717.98416590503,-13965.124066486844,-14435.002438426309,-14966.549273317967,-181691.60863061054,-187500.02235174447,-184281.41585366917,-187500.02235174447
1652215404.296158,-84720.75578221749,-13962.598319363395,-14432.14141513603,-14963.867063983329,-181691.60863061054,-187500.02235174447,-184281.41585366917,-187500.02235174447
1652215404.302652,-84675.02411306193,-13957.323307671943,-14426.531127277749,-14958.547348802967,-181688.94877302038,-187500.02235174447,-184278.66658910117,-187500.02235174447
1652215404.302663,-84655.5333918969,-13951.71301981366,-14420.429101041449,-14952.735895244587,-181685.9759910078,-187500.02235174447,-184275.67145534416,-187500.02235174447
1652215404.309765,-84687.5410899569,-13948.136740700811,-14416.51754576177,-14948.91374694273,-181684.85840378504,-187500.02235174447,-184274.5985716103,-187500.02235174447
1652215404.309775,-84703.03084886442,-13947.443836622697,-14415.51171726128,-14948.10908414234,-181686.91476427493,-187500.02235174447,-184276.52082163346,-187500.02235174447
1652215404.317853,-84666.73161586901,-13946.393304633297,-14414.19296433842,-14946.924441686208,-181688.4346828979,-187500.02235174447,-184277.97368502305,-187500.02235174447
1652215404.325911,-84639.03780448888,-13942.682915053716,-14410.102595103097,-14943.012886406528,-181687.25004044178,-187500.02235174447,-184276.76669082246,-187500.02235174447
1652215404.325922,-84665.6363803907,-13939.866595252348,-14406.839240412623,-14939.95069741615,-181686.87006078602,-187500.02235174447,-184276.43141465564,-187500.02235174447
1652215404.332424,-84684.4341974776,-13934.189252160699,-14400.647807198502,-14933.982781646584,-181683.7408165623,-187500.02235174447,-184273.1904117096,-187500.02235174447
1652215404.332432,-84650.19132497208,-13930.009475947558,-14396.13275481853,-14929.601839733345,-181682.26560142823,-187500.02235174447,-184271.62578959775,-187500.02235174447
1652215404.341807,-84619.27886239039,-13925.740292756593,-14391.483591971826,-14925.220897820103,-181680.633924083,-187500.02235174447,-184269.9941122525,-187500.02235174447
1652215404.341818,-84639.10485972224,-13924.332132855909,-14389.650748926491,-14923.566868730411,-181681.59504909458,-187500.02235174447,-184271.0446442419,-187500.02235174447
1652215404.34846,-84666.26222923545,-13922.655752021761,-14387.639091925514,-14921.66697045171,-181682.44441538388,-187500.02235174447,-184271.80460355338,-187500.02235174447
1652215404.348469,-84641.83177254579,-13918.90065895327,-14383.414612223462,-14917.75541517203,-181681.34917990558,-187500.02235174447,-184270.53055411944,-187500.02235174447
1652215404.355494,-84601.33041159277,-13916.285504851998,-14380.397126721995,-14914.916743626207,-181681.3268281611,-187500.02235174447,-184270.37409190825,-187500.02235174447
1652215404.355502,-84612.46158033152,-13914.542068784485,-14378.340766232106,-14913.03919709196,-181682.1761944504,-187500.02235174447,-184271.26816168646,-187500.02235174447
1652215404.363153,-84647.19619121507,-13912.776280972515,-14376.172647019941,-14911.049891835439,-181682.95850550634,-187500.02235174447,-184272.0951762313,-187500.02235174447
1652215404.363167,-84630.94647299606,-13908.685911737193,-14371.65759463997,-14906.75835690002,-181681.46093862783,-187500.02235174447,-184270.46349888606,-187500.02235174447
1652215404.371113,-84585.8630044297,-13904.595542501873,-14367.164894004452,-14902.444470220145,-181679.8292612826,-187500.02235174447,-184268.7871180519,-187500.02235174447
1652215404.371123,-84588.18758585305,-13902.829754689903,-14364.952071303376,-14900.544571941446,-181680.65627582747,-187500.02235174447,-184269.5917808523,-187500.02235174447
1652215404.37806,-84623.65980430364,-13899.454641277152,-14361.17462649043,-14897.124755039784,-181679.9857234938,-187500.02235174447,-184268.76476630746,-187500.02235174447
1652215404.385267,-84619.50237983494,-13896.012472631035,-14357.397181677483,-14893.481420693568,-181679.06930197112,-187500.02235174447,-184267.87069652925,-187500.02235174447
1652215404.385274,-84576.58703048075,-13893.598484229862,-14354.536158387204,-14890.6651008922,-181679.1363572045,-187500.02235174447,-184267.9377517626,-187500.02235174447
1652215404.392637,-84572.85428915672,-13893.285559807488,-14353.820902564634,-14890.24041774755,-181681.46093862783,-187500.02235174447,-184270.21762969706,-187500.02235174447
1652215404.392648,-84603.16325463812,-13891.005681873046,-14351.183396718909,-14887.737022368554,-181681.7291595613,-187500.02235174447,-184270.35174016378,-187500.02235174447
1652215404.400825,-84606.91834770661,-13886.624739959805,-14346.377771661017,-14883.065507777395,-181679.91866826042,-187500.02235174447,-184268.496545374,-187500.02235174447
1652215404.400834,-84564.02535009687,-13883.227274802599,-14342.60032684807,-14879.511580409002,-181679.0916537156,-187500.02235174447,-184267.80364129588,-187500.02235174447
1652215404.408664,-84545.11577428768,-13880.902693379247,-14339.962821002344,-14877.075240263373,-181679.35987464903,-187500.02235174447,-184268.0942139738,-187500.02235174447
1652215404.408678,-84577.99519038144,-13879.226312545099,-14337.884108768,-14875.242397218037,-181680.25394442727,-187500.02235174447,-184268.89887677418,-187500.02235174447
1652215404.415287,-84593.35083882223,-13875.113591565323,-14333.41375987694,-14870.973214027073,-181678.75637754877,-187500.02235174447,-184267.26719942896,-187500.02235174447
1652215404.415302,-84554.10117555871,-13871.02322233,-14328.898707496966,-14866.61462385829,-181677.19175543688,-187500.02235174447,-184265.63552208373,-187500.02235174447
1652215404.423475,-84524.52981764435,-13868.318661250909,-14325.769463273224,-14863.775952312464,-181677.0799967146,-187500.02235174447,-184265.41200463916,-187500.02235174447
1652215404.423489,-84549.63082666765,-13864.965899582614,-14322.014370204732,-14860.244376688526,-181676.36474089202,-187500.02235174447,-184264.71910056105,-187500.02235174447
1652215404.431218,-84573.79306242384,-13862.261338503522,-14318.996884703265,-14857.361001653791,-181676.25298216977,-187500.02235174447,-184264.56263834986,-187500.02235174447
1652215404.431224,-84543.5511521758,-13859.959108824625,-14316.381730601996,-14854.924661508163,-181676.4764996143,-187500.02235174447,-184264.78615579443,-187500.02235174447
1652215404.437464,-84510.53762561532,-13855.712277378116,-14311.68786426638,-14850.431960872647,-181674.889525758,-187500.02235174447,-184263.13212670473,-187500.02235174447
1652215404.444908,-84527.18967523452,-13852.605384898829,-14308.133936897986,-14847.213309671082,-181674.4201391244,-187500.02235174447,-184262.66274007116,-187500.02235174447
1652215404.444916,-84555.44228022604,-13850.07963777538,-14305.295265352162,-14844.553452080901,-181674.50954610226,-187500.02235174447,-184262.70744356007,-187500.02235174447
1652215404.452997,-84532.17411424806,-13846.592765640351,-14301.406061816939,-14840.708952034587,-181673.50371760176,-187500.02235174447,-184261.65691157067,-187500.02235174447
1652215404.453005,-84490.82338700574,-13844.40229468373,-14298.835611204579,-14838.406722355692,-181673.9284007464,-187500.02235174447,-184262.01453948196,-187500.02235174447
1652215404.461042,-84501.32870689973,-13843.59763188334,-14297.606265259537,-14837.467949088568,-181675.6718368139,-187500.02235174447,-184263.78032729393,-187500.02235174447
1652215404.461052,-84534.47634392696,-13839.641373114751,-14293.270026835207,-14833.198765897605,-181674.21897342431,-187500.02235174447,-184262.32746390434,-187500.02235174447
1652215404.46757,-84521.82525656525,-13836.243907957543,-14289.604340744538,-14829.734245507032,-181673.50371760176,-187500.02235174447,-184261.56750459285,-187500.02235174447
1652215404.46758,-84475.55714554277,-13831.34887592183,-14284.329329053084,-14824.660399515678,-181671.24619141177,-187500.02235174447,-184259.28762665842,-187500.02235174447
1652215404.475653,-84471.936162941,-13826.386788652753,-14278.87550340599,-14819.474794802047,-181668.9216099884,-187500.02235174447,-184256.96304523505,-187500.02235174447
1652215404.475659,-84510.35881165968,-13825.380960152264,-14277.556750483127,-14818.357207579282,-181670.59799082257,-187500.02235174447,-184258.43826036912,-187500.02235174447
1652215404.483616,-84510.53762561532,-13824.732759563061,-14276.550921982638,-14817.507841289978,-181672.54259259018,-187500.02235174447,-184260.40521388117,-187500.02235174447
1652215404.483621,-84467.26464834984,-13821.938791506147,-14273.265215547708,-14814.468004044058,-181672.25201991227,-187500.02235174447,-184260.0922894588,-187500.02235174447
1652215404.490691,-84457.67574997852,-13817.73666354855,-14268.571349212092,-14809.997655152996,-181670.620342567,-187500.02235174447,-184258.41590862465,-187500.02235174447
1652215404.490695,-84486.71066602596,-13814.674474558173,-14265.129180565977,-14806.756652206977,-181670.1733076779,-187500.02235174447,-184257.92417024664,-187500.02235174447
1652215404.497091,-84494.28790739631,-13811.411119867698,-14261.575253197581,-14803.202724838582,-181669.4804035998,-187500.02235174447,-184257.11950744624,-187500.02235174447
1652215404.505276,-84452.02075863132,-13807.857192499303,-14257.641346173448,-14799.425280025636,-181668.5192785882,-187500.02235174447,-184256.18073417913,-187500.02235174447
1652215404.505279,-84429.98193859839,-13804.795003508927,-14254.15447403842,-14796.273684057438,-181668.13929893248,-187500.02235174447,-184255.84545801228,-187500.02235174447
1652215404.513232,-84462.68254073651,-13803.364491863787,-14252.366334481996,-14794.709061945567,-181669.41334836645,-187500.02235174447,-184257.03010046843,-187500.02235174447
1652215404.513234,-84481.68152352351,-13802.179849407656,-14250.757008881214,-14793.256198555971,-181670.66504605592,-187500.02235174447,-184258.30414990237,-187500.02235174447
1652215404.520291,-84444.35411028315,-13798.44710808362,-14246.711343134803,-14789.344643276292,-181669.4357001109,-187500.02235174447,-184257.07480395734,-187500.02235174447
1652215404.520295,-84413.1287232791,-13795.541381304429,-14243.336229722052,-14786.21539905255,-181669.0333687107,-187500.02235174447,-184256.67247255714,-187500.02235174447
1652215404.527834,-84435.74868866787,-13791.719233002572,-14239.111750019998,-14782.21443679505,-181667.871077999,-187500.02235174447,-184255.46547835655,-187500.02235174447
1652215404.527838,-84463.35309307017,-13790.53459054644,-14237.658886630403,-14780.850980383275,-181669.3686448775,-187500.02235174447,-184256.89599000168,-187500.02235174447
1652215404.53591,-84434.92167412302,-13787.830029467348,-14234.641401128936,-14777.945253604086,-181669.34629313307,-187500.02235174447,-184256.69482430158,-187500.02235174447
1652215404.535913,-84398.55538589423,-13782.130334631245,-14228.427616170362,-14771.977337834518,-181666.19469716487,-187500.02235174447,-184253.49852484447,-187500.02235174447
1652215404.543934,-84414.91686283551,-13779.87280844126,-14225.857165558002,-14769.608052922256,-181666.59702856507,-187500.02235174447,-184253.90085624467,-187500.02235174447
1652215404.543942,-84444.24235156088,-13779.001090407502,-14224.560764379594,-14768.646927910679,-181668.4298716104,-187500.02235174447,-184255.68899580112,-187500.02235174447
1652215404.550475,-84423.61169142862,-13775.24599733901,-14220.425691655362,-14764.713020886544,-181667.28993264318,-187500.02235174447,-184254.50435334496,-187500.02235174447
1652215404.550483,-84381.99274325285,-13773.122581615757,-14217.877592787456,-14762.343735974282,-181667.8263745101,-187500.02235174447,-184254.95138823407,-187500.02235174447
1652215404.557498,-84386.59720261065,-13769.434543780631,-14213.787223552135,-14758.454532439058,-181666.68643554288,-187500.02235174447,-184253.83380101132,-187500.02235174447
1652215404.557507,-84422.04706931676,-13767.1993693351,-14211.172069450864,-14756.085247526795,-181666.9770082208,-187500.02235174447,-184254.12437368924,-187500.02235174447
1652215404.56553,-84414.38042096859,-13765.835912923327,-14209.450985127805,-14754.453570181558,-181668.2734093992,-187500.02235174447,-184255.42077486764,-187500.02235174447
1652215404.573609,-84370.70511230292,-13763.310165799878,-14206.589961837526,-14751.726657358011,-181668.5192785882,-187500.02235174447,-184255.46547835655,-187500.02235174447
1652215404.573617,-84366.97237097888,-13760.67265995415,-14203.505421102695,-14748.955041045552,-181668.3851681215,-187500.02235174447,-184255.35371963427,-187500.02235174447
1652215404.580105,-84402.13166500708,-13758.258671552978,-14200.577342579048,-14746.317535199827,-181668.29576114367,-187500.02235174447,-184255.28666440092,-187500.02235174447
1652215404.580113,-84401.99755454034,-13754.347116273299,-14196.352862876996,-14742.20481422005,-181667.133470432,-187500.02235174447,-184253.9902632225,-187500.02235174447
1652215404.588127,-84358.79163250823,-13750.703781927084,-14192.396604108406,-14738.315610684826,-181666.1723454204,-187500.02235174447,-184252.96208297755,-187500.02235174447
1652215404.588136,-84347.14637364702,-13747.015744091957,-14188.239179639719,-14734.426407149604,-181665.01005470875,-187500.02235174447,-184251.86684749924,-187500.02235174447
1652215404.596115,-84374.84018502715,-13743.439464979108,-14184.238217382219,-14730.604258847745,-181664.00422620826,-187500.02235174447,-184250.88337074322,-187500.02235174447
1652215404.59612,-84386.50779563282,-13741.830139378328,-14182.315967359064,-14728.86082278023,-181665.01005470875,-187500.02235174447,-184251.84449575478,-187500.02235174447
1652215404.603166,-84348.48747831435,-13740.824310877839,-14180.9972144362,-14727.787939046377,-181666.70878728735,-187500.02235174447,-184253.49852484447,-187500.02235174447
1652215404.60317,-84321.82184717916,-13735.392836975197,-14175.185760877821,-14722.132947699183,-181663.75835701925,-187500.02235174447,-184250.50339108746,-187500.02235174447
1652215404.610785,-84346.05113816871,-13729.111996783256,-14168.368478818951,-14715.583886573779,-181659.93620871738,-187500.02235174447,-184246.68124278562,-187500.02235174447
1652215404.610794,-84365.20658316692,-13725.446310692587,-14164.23340609472,-14711.605276060734,-181658.9750837058,-187500.02235174447,-184245.56365556284,-187500.02235174447
1652215404.618691,-84333.37769906256,-13724.529889169919,-14162.914653171856,-14710.510040582425,-181660.76322326224,-187500.02235174447,-184247.240036397,-187500.02235174447
1652215404.618698,-84301.01237309127,-13722.629990891219,-14160.65712698187,-14708.364273114716,-181661.4784790848,-187500.02235174447,-184247.99999570847,-187500.02235174447
1652215404.625888,-84323.36411754657,-13720.752444356973,-14158.46665602525,-14706.352616113738,-181662.0819761851,-187500.02235174447,-184248.67054804214,-187500.02235174447
1652215404.632335,-84351.92964696046,-13718.606676889263,-14155.89620541289,-14704.117441668206,-181662.59606630757,-187500.02235174447,-184249.07287944233,-187500.02235174447
1652215404.632343,-84325.26401582528,-13714.672769865128,-14151.60467047747,-14700.049424177341,-181661.34436861807,-187500.02235174447,-184247.8435334973,-187500.02235174447
1652215404.640506,-84289.83650086362,-13711.320008196833,-14147.782522175614,-14696.428441575581,-181660.65146453996,-187500.02235174447,-184247.0388706969,-187500.02235174447
1652215404.640514,-84302.86756788107,-13709.57657212932,-14145.681458196816,-14694.483839807968,-181661.50083082926,-187500.02235174447,-184247.97764396403,-187500.02235174447
1652215404.649902,-84329.82377169417,-13705.173278471624,-14140.89818488338,-14689.81232521681,-181659.71269127284,-187500.02235174447,-184246.03304219642,-187500.02235174447
1652215404.649916,-84312.32235578565,-13701.127612725213,-14136.494891225684,-14685.632549003667,-181658.25982788324,-187500.02235174447,-184244.58017880682,-187500.02235174447
1652215404.655973,-84269.384654687,-13698.624217346218,-14133.544460957582,-14682.95033966903,-181658.3268831166,-187500.02235174447,-184244.62488229573,-187500.02235174447
1652215404.655982,-84271.15044249898,-13695.00323474446,-14129.521146955627,-14679.15054311163,-181657.36575810504,-187500.02235174447,-184243.5967020508,-187500.02235174447
1652215404.66306,-84307.56143421668,-13693.080984721302,-14127.375379487918,-14677.09418262174,-181658.05866218315,-187500.02235174447,-184244.3343096178,-187500.02235174447
1652215404.663072,-84302.1970155474,-13691.069327720325,-14124.89433585338,-14674.90371166512,-181658.59510405007,-187500.02235174447,-184244.8931032292,-187500.02235174447
1652215404.670954,-84256.62180860303,-13686.397813129166,-14119.820489862024,-14670.031031373863,-181656.58344704908,-187500.02235174447,-184242.76968750593,-187500.02235174447
1652215404.670964,-84248.91045676595,-13684.27439740591,-14117.205335760753,-14667.70644995051,-181657.0751854271,-187500.02235174447,-184243.17201890613,-187500.02235174447
1652215404.67908,-84283.15332927147,-13680.876932248704,-14113.472594436716,-14664.130170837661,-181656.29287437117,-187500.02235174447,-184242.3450043613,-187500.02235174447
1652215404.679093,-84286.41668396196,-13676.875969991204,-14109.158707756844,-14659.972746368974,-181654.95176970385,-187500.02235174447,-184241.11565841624,-187500.02235174447
1652215404.68508,-84245.62475033102,-13674.976071712503,-14106.901181566856,-14657.961089367998,-181655.5776185486,-187500.02235174447,-184241.741507261,-187500.02235174447
1652215404.692735,-84232.39251761348,-13672.427972844598,-14103.83899257648,-14655.077714333263,-181655.55526680415,-187500.02235174447,-184241.65210028316,-187500.02235174447
1652215404.692745,-84259.4381284044,-13669.052859431848,-14100.016844274622,-14651.434379987048,-181654.79530749266,-187500.02235174447,-184240.80273399386,-187500.02235174447
1652215404.700646,-84274.16792800045,-13667.398830342154,-14098.049890762555,-14649.601536941713,-181655.89054297097,-187500.02235174447,-184241.7862107499,-187500.02235174447
1652215404.700656,-84236.05820370415,-13664.448400074054,-14094.808887816536,-14646.47229271797,-181655.55526680415,-187500.02235174447,-184241.47328632753,-187500.02235174447
1652215404.708816,-84207.51502603471,-13661.408562828132,-14091.322015681508,-14643.23128977195,-181655.1752871484,-187500.02235174447,-184240.98154794952,-187500.02235174447
1652215404.708825,-84234.53828508119,-13659.218091871511,-14088.617454602416,-14640.817301370776,-181655.46585982633,-187500.02235174447,-184241.3391758608,-187500.02235174447
1652215404.715377,-84255.10188998007,-13654.144245880158,-14083.185980699776,-14635.519937934869,-181653.00716793624,-187500.02235174447,-184238.81342873734,-187500.02235174447
1652215404.715387,-84223.04948843116,-13651.126760378691,-14079.855570775935,-14632.27893498885,-181652.6271882805,-187500.02235174447,-184238.47815257052,-187500.02235174447
1652215404.723315,-84189.79009268167,-13650.120931878202,-14078.559169597527,-14631.13899602163,-181654.34827260356,-187500.02235174447,-184240.15453340465,-187500.02235174447
1652215404.723324,-84207.78324696819,-13646.410542298621,-14074.35704163993,-14627.182737253039,-181653.11892665853,-187500.02235174447,-184238.90283571515,-187500.02235174447
1652215404.731327,-84236.9299217379,-13642.543690507853,-14070.154913682332,-14623.159423251085,-181652.00133943575,-187500.02235174447,-184237.6958415146,-187500.02235174447
1652215404.731335,-84215.09226740507,-13640.800254440339,-14067.942090981256,-14621.237173227928,-181652.82835398059,-187500.02235174447,-184238.52285605943,-187500.02235174447
1652215404.738445,-84175.93201111937,-13636.978106138482,-14063.672907790293,-14617.169155737061,-181651.48724931327,-187500.02235174447,-184237.20410313655,-187500.02235174447
1652215404.738455,-84184.8727089015,-13632.79832992534,-14059.135503665866,-14612.877620801642,-181649.96733069033,-187500.02235174447,-184235.50537055795,-187500.02235174447
1652215404.745128,-84214.48877030477,-13629.780844423873,-14055.648631530838,-14609.65896960008,-181649.63205452348,-187500.02235174447,-184235.0806874133,-187500.02235174447
1652215404.752916,-84203.44700854385,-13629.445568257042,-14054.978079197179,-14609.144879477606,-181651.97898769128,-187500.02235174447,-184237.42762058112,-187500.02235174447
1652215404.752925,-84157.91650508839,-13624.97521936598,-14050.105398905922,-14604.451013141992,-181650.14614464596,-187500.02235174447,-184235.50537055795,-187500.02235174447
1652215404.761039,-84155.48016494277,-13620.102539074725,-14044.763331981103,-14599.332463661727,-181647.86626671153,-187500.02235174447,-184233.1807891346,-187500.02235174447
1652215404.761048,-84190.66181071542,-13616.347446006233,-14040.650611001327,-14595.353853148683,-181646.72632774428,-187500.02235174447,-184231.9290914451,-187500.02235174447
1652215404.7677,-84187.93489789187,-13613.486422715954,-14037.431959799762,-14592.291664158305,-181646.50281029975,-187500.02235174447,-184231.7949809784,-187500.02235174447
1652215404.767709,-84143.74549910374,-13611.899448859627,-14035.465006287695,-14590.45882111297,-181647.53099054468,-187500.02235174447,-184232.7337542455,-187500.02235174447
1652215404.775635,-84134.13424898795,-13610.468937214488,-14033.676866731272,-14588.804792023277,-181648.69328125636,-187500.02235174447,-184233.8960449572,-187500.02235174447
1652215404.775644,-84166.99131333725,-13605.55155343432,-14028.312448061997,-14583.708594287467,-181646.41340332193,-187500.02235174447,-184231.57146353382,-187500.02235174447
1652215404.783558,-84173.16039480691,-13601.572942921275,-14023.998561382123,-14579.506466329869,-181645.16170563243,-187500.02235174447,-184230.20800712204,-187500.02235174447
1652215404.783569,-84132.5025716427,-13599.181306264558,-14021.29400030303,-14577.092477928696,-181645.40757482144,-187500.02235174447,-184230.49857979998,-187500.02235174447
1652215404.790825,-84116.56577784607,-13596.432041696555,-14018.164756079288,-14574.142047660596,-181645.31816784362,-187500.02235174447,-184230.40917282214,-187500.02235174447
1652215404.790834,-84143.72314735927,-13593.481611428453,-14014.744939177626,-14571.035155181307,-181644.96053993233,-187500.02235174447,-184230.0291931664,-187500.02235174447
1652215404.798267,-84158.34118823304,-13589.54770440432,-14010.38634900884,-14566.944785945987,-181643.66413875393,-187500.02235174447,-184228.6880884991,-187500.02235174447
1652215404.798276,-84120.36557440348,-13587.044309025325,-14007.43591874074,-14564.195521377984,-181643.68649049837,-187500.02235174447,-184228.6433850102,-187500.02235174447
1652215404.805108,-84092.47059732326,-13586.306701458301,-14006.407738495796,-14563.189692877495,-181645.60874052154,-187500.02235174447,-184230.47622805552,-187500.02235174447
1652215404.805117,-84116.96810924627,-13582.864532812184,-14002.473831471663,-14559.479303297914,-181644.78172597667,-187500.02235174447,-184229.55980653284,-187500.02235174447
1652215404.813353,-84141.55502814711,-13579.73528858844,-13999.05401457,-14556.081838140708,-181644.33469108757,-187500.02235174447,-184229.0457164104,-187500.02235174447
1652215404.820285,-84111.64839406591,-13576.44958215351,-13995.567142434973,-14552.684372983502,-181643.75354573174,-187500.02235174447,-184228.39751582118,-187500.02235174447
1652215404.820293,-84075.88560293741,-13574.817904808273,-13993.555485433995,-14551.030343893808,-181644.80407772114,-187500.02235174447,-184229.42569606612,-187500.02235174447
1652215404.827848,-84092.91763221237,-13571.956881517994,-13990.269778999065,-14547.834044436699,-181644.60291202104,-187500.02235174447,-184229.0457164104,-187500.02235174447
1652215404.827858,-84125.64058609493,-13570.369907661667,-13988.19106676472,-14546.06825662473,-181645.56403703263,-187500.02235174447,-184230.1409518887,-187500.02235174447
1652215404.835823,-84103.93704222883,-13567.888864027127,-13985.240636496621,-14543.363695545639,-181645.63109226598,-187500.02235174447,-184230.16330363313,-187500.02235174447
1652215404.835834,-84064.62032373194,-13565.139599459124,-13982.089040528423,-14540.390913533081,-181645.45227831035,-187500.02235174447,-184229.85037921078,-187500.02235174447
1652215404.845473,-84075.93030642632,-13564.44669538101,-13980.926749816746,-14539.45214026596,-181647.37452833352,-187500.02235174447,-184231.77262923392,-187500.02235174447
1652215404.845486,-84103.57941431754,-13559.171683689558,-13975.294110214008,-14534.065369852231,-181644.73702248777,-187500.02235174447,-184229.1798268771,-187500.02235174447
1652215404.851406,-84092.69411476782,-13556.087142954726,-13971.986052034623,-14530.802015161755,-181644.40174632095,-187500.02235174447,-184228.71044024354,-187500.02235174447
1652215404.851414,-84048.37060551293,-13553.181416175536,-13968.588586877417,-14527.672770938012,-181644.06647015412,-187500.02235174447,-184228.41986756562,-187500.02235174447
1652215404.858461,-84044.14612581088,-13548.889881240117,-13963.76061007507,-14523.20242204695,-181642.27833059768,-187500.02235174447,-184226.6764314981,-187500.02235174447
1652215404.85847,-84080.42300706185,-13546.58765156122,-13961.056048995979,-14520.58726794568,-181642.47949629778,-187500.02235174447,-184226.85524545377,-187500.02235174447
1652215404.866597,-84078.81368146106,-13543.369000359655,-13957.546825116495,-14517.145099299563,-181641.92070268642,-187500.02235174447,-184226.25174835348,-187500.02235174447
1652215404.866605,-84035.7865733846,-13541.737323014419,-13955.490464626608,-14515.267552765317,-181642.94888293135,-187500.02235174447,-184227.21287336503,-187500.02235174447
1652215404.873594,-84021.57086391102,-13538.228099134934,-13951.489502369108,-14511.512459696825,-181642.03246140867,-187500.02235174447,-184226.09528614228,-187500.02235174447
1652215404.880081,-84054.91966663834,-13534.785930488817,-13947.645002322794,-14507.869125350611,-181641.20544686384,-187500.02235174447,-184225.2906233419,-187500.02235174447
1652215404.880087,-84063.56979174254,-13530.561450786765,-13943.129949942822,-14503.532886926281,-181639.68552824087,-187500.02235174447,-184223.86011169673,-187500.02235174447
1652215404.888262,-84023.00137555617,-13527.25339260738,-13939.419560363242,-14500.001311302341,-181638.9255689294,-187500.02235174447,-184223.01074540743,-187500.02235174447
1652215404.888271,-84004.13650323589,-13523.565354772254,-13935.262135894554,-14496.089756022664,-181637.80798170663,-187500.02235174447,-184221.91550992912,-187500.02235174447
1652215404.896156,-84028.6340151589,-13519.25146809238,-13930.367103858842,-14491.48529666487,-181636.06454563912,-187500.02235174447,-184220.10501862827,-187500.02235174447
1652215404.896171,-84044.70491942226,-13516.122223868637,-13926.835528234904,-14488.132534996574,-181635.59515900555,-187500.02235174447,-184219.5909285058,-187500.02235174447
1652215404.903282,-84008.89742480486,-13512.948276155983,-13923.438063077696,-14484.846828561644,-181635.125772372,-187500.02235174447,-184219.0768383833,-187500.02235174447
1652215404.903292,-83978.074369201,-13511.204840088469,-13921.247592121077,-14482.946930282944,-181635.99749040575,-187500.02235174447,-184219.8815011837,-187500.02235174447
1652215404.910735,-84000.04613400056,-13507.472098764432,-13917.1348711413,-14478.990671514353,-181634.879903183,-187500.02235174447,-184218.74156221648,-187500.02235174447
1652215404.910745,-84025.43771570179,-13503.180563829013,-13912.530411783508,-14474.497970878838,-181633.33763281556,-187500.02235174447,-184217.1322366157,-187500.02235174447
1652215404.91878,-83998.45916014424,-13500.520706238833,-13909.535278026497,-14471.681651077468,-181633.2705775822,-187500.02235174447,-184217.1322366157,-187500.02235174447
1652215404.91879,-83958.82951722498,-13496.072709092226,-13904.595542501873,-14466.987784741854,-181631.43773453686,-187500.02235174447,-184215.29939357037,-187500.02235174447
1652215404.926775,-83972.97817146519,-13493.09992707967,-13901.220429089122,-14463.903244007022,-181631.19186534785,-187500.02235174447,-184214.94176565908,-187500.02235174447
1652215404.926784,-84004.76235208064,-13490.86475263414,-13898.538219754484,-14461.422200372483,-181631.50478977023,-187500.02235174447,-184215.14293135918,-187500.02235174447
1652215404.93287,-83985.98688673817,-13487.646101432574,-13894.98429238609,-14458.00238347082,-181630.9236444144,-187500.02235174447,-184214.53943425888,-187500.02235174447
1652215404.940347,-83945.10554612942,-13484.09217406418,-13891.139792339778,-14454.180235168962,-181630.00722289173,-187500.02235174447,-184213.6677162251,-187500.02235174447
1652215404.940355,-83953.64391251134,-13483.131049052603,-13889.798687672459,-14453.062647946197,-181631.66125198142,-187500.02235174447,-184215.25469008146,-187500.02235174447
1652215404.948429,-83985.40574138233,-13481.81229612974,-13887.965844627124,-14451.498025834326,-181633.00235664874,-187500.02235174447,-184216.4393325376,-187500.02235174447
1652215404.948438,-83978.99079072366,-13480.3817844846,-13886.13300158179,-14449.754589766811,-181634.20935084933,-187500.02235174447,-184217.6239749937,-187500.02235174447
1652215404.955697,-83934.17554309077,-13476.336118738189,-13881.685004435183,-14445.641868787035,-181632.73413571526,-187500.02235174447,-184216.19346334858,-187500.02235174447
1652215404.955712,-83928.25233081011,-13473.653909403552,-13878.533408466985,-14442.736142007845,-181632.71178397082,-187500.02235174447,-184216.1264081152,-187500.02235174447
1652215404.963091,-83962.49520331564,-13470.703479135453,-13875.202998543144,-14439.584546039647,-181632.39885954844,-187500.02235174447,-184215.85818718176,-187500.02235174447
1652215404.9631,-83963.85865972743,-13466.90368257805,-13870.911463607725,-14435.494176804326,-181631.14716185894,-187500.02235174447,-184214.60648949226,-187500.02235174447
1652215404.971006,-83920.96566211768,-13464.556749410243,-13868.184550784177,-14432.990781425331,-181631.48243802576,-187500.02235174447,-184214.80765519236,-187500.02235174447
1652215404.971015,-83905.56531018797,-13462.656851131542,-13865.904672849736,-14430.867365702077,-181632.26474908172,-187500.02235174447,-184215.5229110149,-187500.02235174447
1652215404.979006,-83939.22703733767,-13460.421676686012,-13863.26716700401,-14428.431025556449,-181632.71178397082,-187500.02235174447,-184215.8358354373,-187500.02235174447
1652215404.979014,-83953.12982238887,-13458.789999340774,-13861.255510003033,-14426.508775533293,-181633.65055723794,-187500.02235174447,-184216.75225695997,-187500.02235174447
1652215404.985567,-83915.73535391514,-13456.800694084252,-13858.88622509077,-14424.295952832217,-181634.34346131605,-187500.02235174447,-184217.3781058047,-187500.02235174447
1652215404.985577,-83895.70819088319,-13454.81138882773,-13856.427533200686,-14422.060778386687,-181634.83519969406,-187500.02235174447,-184217.86984418271,-187500.02235174447
1652215404.992667,-83919.37868826136,-13452.41975217101,-13853.588861654862,-14419.535031263236,-181635.14812411644,-187500.02235174447,-184218.11571337172,-187500.02235174447
1652215405.000699,-83937.50595301461,-13448.508196891333,-13849.342030208354,-14415.399958539005,-181633.94112991585,-187500.02235174447,-184216.86401568222,-187500.02235174447
1652215405.000711,-83903.46424620919,-13444.95426952294,-13845.475178417586,-14411.622513726059,-181632.9800049043,-187500.02235174447,-184215.94759415957,-187500.02235174447
1652215405.008644,-83869.42253940375,-13442.115597977114,-13842.301230704932,-14408.582676480137,-181632.7788392042,-187500.02235174447,-184215.724076715,-187500.02235174447
1652215405.008654,-83890.36612395837,-13439.679257831485,-13839.484910903564,-14405.9004671455,-181632.95765315983,-187500.02235174447,-184215.79113194838,-187500.02235174447
1652215405.015277,-83920.63038595086,-13438.360504908624,-13837.763826580505,-14404.51465898927,-181634.3211095716,-187500.02235174447,-184217.2216435935,-187500.02235174447
1652215405.015288,-83895.17174901626,-13434.001914739838,-13832.935849778158,-14399.954903120388,-181632.55532175963,-187500.02235174447,-184215.4335040371,-187500.02235174447
1652215405.023402,-83852.63637931782,-13428.525737348287,-13827.057340986412,-14394.23285653983,-181629.7166502138,-187500.02235174447,-184212.59483249128,-187500.02235174447
1652215405.023411,-83861.86764977785,-13424.882403002073,-13822.989323495547,-14390.455411726882,-181628.7331734578,-187500.02235174447,-184211.54430050188,-187500.02235174447
1652215405.031339,-83894.65765889379,-13421.730807033875,-13819.390692638242,-14386.9461878474,-181628.10732461303,-187500.02235174447,-184210.85139642376,-187500.02235174447
1652215405.031347,-83879.92785929774,-13419.517984332799,-13816.820242025882,-14384.532199446227,-181628.5767112466,-187500.02235174447,-184211.3207830573,-187500.02235174447
1652215405.038352,-83839.89588497828,-13418.042769198748,-13814.942695491636,-14382.900522100988,-181629.85076068054,-187500.02235174447,-184212.43837028008,-187500.02235174447
1652215405.038362,-83843.42746060222,-13414.220620896891,-13810.807622767405,-14378.921911587944,-181628.6214147355,-187500.02235174447,-184211.20902433505,-187500.02235174447
1652215405.045864,-83873.35644642788,-13410.756100506318,-13807.030177954457,-14375.32328073064,-181627.83910367955,-187500.02235174447,-184210.471416768,-187500.02235174447
1652215405.045872,-83870.0483882485,-13408.99031269435,-13804.839706997838,-14373.333975474117,-181628.71082171332,-187500.02235174447,-184211.2760795684,-187500.02235174447
1652215405.053003,-83825.8813412048,-13406.196344637436,-13801.621055796273,-14370.249434739286,-181628.5320077577,-187500.02235174447,-184211.00785863496,-187500.02235174447
1652215405.053013,-83817.23121610061,-13405.011702181304,-13799.944674962126,-14368.8412748386,-181629.98487114726,-187500.02235174447,-184212.43837028008,-187500.02235174447
1652215405.061021,-83853.26222816257,-13403.447080069433,-13797.910666216692,-14367.008431793265,-181630.9236444144,-187500.02235174447,-184213.3771435472,-187500.02235174447
1652215405.067953,-83855.49740260809,-13397.277998599768,-13791.473363813564,-14360.615832879048,-181627.43677227935,-187500.02235174447,-184209.7785126899,-187500.02235174447
1652215405.067961,-83813.02908814301,-13394.685196242954,-13788.500581801009,-14357.777161333224,-181627.39206879045,-187500.02235174447,-184209.733809201,-187500.02235174447
1652215405.075602,-83794.25362280055,-13392.293559586235,-13785.706613744094,-14355.206710720864,-181627.54853100164,-187500.02235174447,-184209.9349749011,-187500.02235174447
1652215405.075614,-83824.11555339284,-13387.711451972897,-13780.722174730561,-14350.468140896339,-181625.64863272294,-187500.02235174447,-184207.9233179001,-187500.02235174447
1652215405.08363,-83840.65584428977,-13385.230408338359,-13777.928206673647,-14347.7859315617,-181625.93920540085,-187500.02235174447,-184208.05742836685,-187500.02235174447
1652215405.08364,-83804.35661129435,-13383.486972270844,-13775.849494439304,-14345.796626305179,-181626.90033041243,-187500.02235174447,-184208.9738498895,-187500.02235174447
1652215405.090504,-83779.85909937133,-13380.93887340294,-13772.809657193382,-14343.047361737175,-181626.877978668,-187500.02235174447,-184208.99620163397,-187500.02235174447
1652215405.090514,-83804.44601827217,-13379.798934435717,-13771.2003315926,-14341.683905325403,-181628.35319380203,-187500.02235174447,-184210.40436153466,-187500.02235174447
1652215405.098208,-83825.90369294926,-13377.161428589992,-13768.2499013245,-14338.778178546212,-181628.24143507975,-187500.02235174447,-184210.2702510679,-187500.02235174447
1652215405.098219,-83791.5714134659,-13371.238216309335,-13761.857302410283,-14332.69850405437,-181624.95572864483,-187500.02235174447,-184206.9174893996,-187500.02235174447
1652215405.106261,-83754.13224150328,-13366.901977885007,-13757.208139563578,-14328.228155163308,-181623.43581002188,-187500.02235174447,-184205.3305155433,-187500.02235174447
1652215405.106271,-83772.52772719,-13364.487989483832,-13754.257709295478,-14325.50124233976,-181623.43581002188,-187500.02235174447,-184205.3752190322,-187500.02235174447
1652215405.114259,-83804.08839036088,-13362.297518527213,-13751.620203449751,-14323.02019870522,-181623.83814142205,-187500.02235174447,-184205.7775504324,-187500.02235174447
1652215405.114269,-83782.29543951697,-13359.794123148218,-13748.915642370659,-14320.405044603951,-181624.03930712215,-187500.02235174447,-184205.9787161325,-187500.02235174447
1652215405.120357,-83738.48602038456,-13355.524939957255,-13744.221776035045,-14316.001750946254,-181622.4299815214,-187500.02235174447,-184204.2799835539,-187500.02235174447
1652215405.127809,-83747.11379374431,-13352.865082367074,-13741.092531811302,-14312.984265444788,-181622.3182227991,-187500.02235174447,-184204.19057657607,-187500.02235174447
1652215405.127819,-83781.17785229419,-13349.78054163224,-13737.583307931818,-14309.631503776493,-181621.98294663228,-187500.02235174447,-184203.6764864536,-187500.02235174447
1652215405.13593,-83769.53259343297,-13347.992402075817,-13735.392836975197,-14307.59749503106,-181622.89936815493,-187500.02235174447,-184204.54820448736,-187500.02235174447
1652215405.135938,-83729.38886039125,-13347.031277064238,-13734.074084052336,-14306.435204319383,-181624.59810073354,-187500.02235174447,-184206.13517834368,-187500.02235174447
1652215405.143821,-83731.37816564777,-13344.282012496235,-13730.833081106315,-14303.484774051283,-181624.374583289,-187500.02235174447,-184206.0234196214,-187500.02235174447
1652215405.143833,-83761.12833751779,-13339.87871883854,-13725.982752559514,-14298.723852482302,-181622.54174024364,-187500.02235174447,-184204.10116959826,-187500.02235174447
1652215405.15045,-83757.12737526029,-13335.408369947478,-13721.19947924608,-14294.097041380053,-181620.68654545388,-187500.02235174447,-184202.223623064,-187500.02235174447
1652215405.150459,-83711.97685146057,-13332.480291423833,-13717.802014088871,-14290.990148900766,-181620.5300832427,-187500.02235174447,-184201.88834689718,-187500.02235174447
1652215405.158622,-83699.99631643252,-13329.909840811473,-13714.829232076316,-14288.218532588307,-181620.59713847603,-187500.02235174447,-184201.93305038608,-187500.02235174447
1652215405.158632,-83733.90391277122,-13326.892355310007,-13711.498822152475,-14285.0222331312,-181620.23951056474,-187500.02235174447,-184201.55307073036,-187500.02235174447
1652215405.16657,-83742.15170647523,-13323.96427678636,-13708.168412228635,-14281.91534065191,-181619.90423439792,-187500.02235174447,-184201.3295532858,-187500.02235174447
1652215405.16658,-83700.3539443438,-13320.87973605153,-13704.659188349151,-14278.562578983616,-181619.4795512533,-187500.02235174447,-184200.90487014115,-187500.02235174447
1652215405.173633,-83677.64457197722,-13317.102291238582,-13700.52411562492,-14274.561616726116,-181618.33961228604,-187500.02235174447,-184199.56376547384,-187500.02235174447
1652215405.173642,-83708.15470315871,-13313.727177825831,-13696.634912089696,-14270.82887540208,-181617.5125977412,-187500.02235174447,-184198.64734395116,-187500.02235174447
1652215405.180098,-83726.17020918969,-13311.268485935747,-13693.773888799416,-14268.169017811897,-181617.78081867468,-187500.02235174447,-184198.91556488464,-187500.02235174447
1652215405.188215,-83689.53570002744,-13308.608628345566,-13690.912865509137,-14265.48680847726,-181617.80317041912,-187500.02235174447,-184199.0720270958,-187500.02235174447
1652215405.188226,-83662.78066191444,-13305.25586667727,-13687.1801241851,-14261.910529364412,-181617.1773215744,-187500.02235174447,-184198.33441952878,-187500.02235174447
1652215405.196216,-83682.98663890203,-13301.25490441977,-13682.75447878295,-14257.663697917904,-181615.7244581848,-187500.02235174447,-184196.88155613918,-187500.02235174447
1652215405.196226,-83705.20427289061,-13297.723328795832,-13678.798220014362,-14253.841549616045,-181614.74098142874,-187500.02235174447,-184195.83102414978,-187500.02235174447
1652215405.203179,-83677.04107487692,-13295.845782261586,-13676.495990335465,-14251.695782148336,-181615.38918201797,-187500.02235174447,-184196.47922473899,-187500.02235174447
1652215405.203188,-83639.93717908111,-13293.476497349322,-13673.657318789641,-14249.035924558155,-181615.6126994625,-187500.02235174447,-184196.81450090584,-187500.02235174447
1652215405.210802,-83654.97990309953,-13289.140258924994,-13668.89639722066,-14244.543223922637,-181613.9586703728,-187500.02235174447,-184195.20517530505,-187500.02235174447
1652215405.210813,-83685.55708951439,-13285.586331556598,-13664.962490196525,-14240.72107562078,-181613.04224885014,-187500.02235174447,-184194.22169854902,-187500.02235174447
1652215405.218811,-83664.9040776377,-13282.524142566223,-13661.56502503932,-14237.43536918585,-181612.8187314056,-187500.02235174447,-184193.7746636599,-187500.02235174447
1652215405.218819,-83625.29678646289,-13282.34532861058,-13661.117990150213,-14237.033037785655,-181615.45623725132,-187500.02235174447,-184196.30041078335,-187500.02235174447
1652215405.226775,-83630.92942606562,-13279.57371229812,-13657.787580226372,-14233.903793561913,-181615.1209610845,-187500.02235174447,-184195.92043112763,-187500.02235174447
1652215405.226784,-83663.98765611502,-13275.05865991815,-13652.825492957294,-14229.232278970752,-181613.19871106133,-187500.02235174447,-184194.06523633783,-187500.02235174447
1652215405.233339,-83653.32587400984,-13271.191808127382,-13648.668068488607,-14225.253668457708,-181612.0587720941,-187500.02235174447,-184192.9252973706,-187500.02235174447
1652215405.233348,-83610.14230372218,-13267.682584247897,-13644.84592018675,-14221.543278878127,-181611.3211645271,-187500.02235174447,-184192.03122759238,-187500.02235174447
1652215405.240419,-83610.6340421002,-13265.20154061336,-13641.98489689647,-14218.81636605458,-181611.47762673828,-187500.02235174447,-184192.14298631466,-187500.02235174447
1652215405.248544,-83641.50180119298,-13263.10047663456,-13639.436798028566,-14216.625895097959,-181611.9246616274,-187500.02235174447,-184192.81353864833,-187500.02235174447
1652215405.248552,-83640.47362094803,-13259.591252755077,-13635.435835771064,-14212.937857262834,-181611.09764708253,-187500.02235174447,-184191.91946887012,-187500.02235174447
1652215405.255506,-83595.4348558706,-13255.277366075203,-13630.876079902182,-14208.42280488286,-181609.5106732262,-187500.02235174447,-184190.22073629152,-187500.02235174447
1652215405.255516,-83583.9237074761,-13256.05967713114,-13631.211356069012,-14208.869839771967,-181613.04224885014,-187500.02235174447,-184193.55114621535,-187500.02235174447
1652215405.263066,-83617.7866003259,-13253.779799196696,-13628.551498478831,-14206.455851370794,-181613.39987676142,-187500.02235174447,-184193.97582936,-187500.02235174447
1652215405.263076,-83628.5377894089,-13250.807017184141,-13625.22108855499,-14203.28190365814,-181613.15400757242,-187500.02235174447,-184193.66290493764,-187500.02235174447
1652215405.271104,-83586.56121332184,-13246.515482248722,-13620.348408263733,-14198.588037322526,-181611.4105715049,-187500.02235174447,-184191.83006189228,-187500.02235174447
1652215405.271117,-83560.96846592051,-13241.553394979645,-13614.93928610555,-14193.469487842262,-181609.0636383371,-187500.02235174447,-184189.57253570232,-187500.02235174447
1652215405.279066,-83588.41640811163,-13237.61948795551,-13610.625399425675,-14189.42382209585,-181607.78958890316,-187500.02235174447,-184188.38789324617,-187500.02235174447
1652215405.279078,-83608.62238509922,-13235.831348399086,-13608.412576724599,-14187.300406372597,-181608.616603448,-187500.02235174447,-184189.12550081318,-187500.02235174447
1652215405.285646,-83576.30176261684,-13234.75846466523,-13607.004416823915,-14185.914598216368,-181610.1588738154,-187500.02235174447,-184190.55601245834,-187500.02235174447
1652215405.285657,-83548.04915762534,-13231.942144863862,-13603.83046911126,-14182.986519692722,-181610.0694668376,-187500.02235174447,-184190.37719850268,-187500.02235174447
1652215405.29364,-83567.51752704591,-13229.081121573583,-13600.589466165242,-14179.991385935711,-181609.89065288196,-187500.02235174447,-184190.19838454705,-187500.02235174447
1652215405.29365,-83592.70794304705,-13226.689484916866,-13597.88490508615,-14177.443287067807,-181610.24828079322,-187500.02235174447,-184190.53366071387,-187500.02235174447
1652215405.300693,-83564.9247246891,-13222.599115681543,-13593.302797472812,-14172.9952899212,-181608.79541740363,-187500.02235174447,-184188.99139034646,-187500.02235174447
1652215405.300704,-83525.60800619221,-13218.799319124142,-13589.078317770758,-14168.94962417479,-181607.74488541423,-187500.02235174447,-184187.82909963478,-187500.02235174447
1652215405.308712,-83539.06375635431,-13216.787662123164,-13586.597274136218,-14166.692097984804,-181608.23662379227,-187500.02235174447,-184188.43259673507,-187500.02235174447
