Time,CH1,CH2,CH3,CH4,CH5,CH6,CH7,CH8
1660692847.951346,0.0,0.0,0.0,0.0,0.0,0.0,0.0,0.0
1660692848.4301052,-34581.63554449505,-36403.3921245804,-44954.14137293594,-38939.06342256825,-38894.87402378011,-38726.923015942935,-44300.39755110712,187500.0
1660692848.430236,-34630.56351310772,-36262.956114167704,-44589.025627258496,-38844.4708400334,-38806.42817097047,-38528.238359479714,-44718.66574509928,187500.0
1660692848.4302473,-34472.89430771999,-36619.10881031857,-44919.831445197044,-38600.613308026,-38530.406478691875,-38471.956666941245,-44600.626182630804,187500.0
1660692848.430258,-34067.45601504517,-36475.11887253748,-44879.19597377729,-38555.46278422628,-38503.27146092313,-38778.53319389024,-44594.68061860569,187500.0
1660692848.4302676,-34222.01832795362,-36452.52125889317,-44776.10972834942,-38615.45486634432,-38715.1883501039,-38844.247322588846,-44467.27567521044,187500.0
1660692848.4302776,-34312.81111393108,-36599.84160659809,-44999.76128336922,-38487.15585317086,-38524.05858326657,-38572.33835129003,-44267.026396635345,187500.0
1660692848.4302871,-34045.21602931214,-36603.2390717553,-45063.46375506685,-38486.574707815016,-38463.150079625855,-38558.70378717229,-44156.36290983712,187500.0
1660692848.4302967,-33717.04771721932,-36443.22293319976,-44842.382650659405,-38702.02317261972,-38647.03788125967,-38673.54705018366,-44151.35611907913,187500.0
1660692848.430306,-34269.00169479867,-36243.59950346941,-44574.832269529375,-38713.154341358466,-38661.275942477696,-38627.59186358355,-43722.001459837134,187500.0
1660692848.430328,-34268.97934305422,-36063.444443159635,-44405.67426749162,-38819.0122030988,-38683.96296309984,-38707.05231512217,-43556.531495634496,187500.0
1660692848.4303372,-34397.18894924986,-36001.5971662518,-44608.13636876779,-38609.486950574756,-38460.914905180325,-38455.48343127769,-43820.505597651674,187500.0
1660692848.4303474,-33974.67392381119,-36123.30241481095,-44887.51082271467,-38323.31756631345,-38183.88738440125,-38123.56002611638,-44636.59013945939,187500.0
1660692848.4303567,-33679.69795223451,-35865.51974600789,-44484.68768414112,-38477.94693445527,-38329.46429603866,-38233.12827743629,-44828.6810313083,187500.0
1660692848.430366,-33893.09005654932,-35908.14452268416,-44365.01644432741,-38439.27841654759,-38264.51012665154,-38396.5642328935,-44562.896437990246,187500.0
1660692848.4303753,-33961.978132960576,-36189.6423923543,-44747.812419869,-38319.33895580041,-38114.61932833425,-38248.19335319917,-44200.03821850279,187500.0
1660692848.4303849,-33477.39231316952,-36076.78843459945,-44529.882911429755,-38485.65828629235,-38229.931977979184,-38195.80086419593,-44237.1421142986,187500.0
1660692848.430394,-33770.915421356614,-35910.983194229986,-44264.7465187009,-38353.22420039466,-38142.38019494774,-38213.302280104435,-44020.28548959321,187500.0
1660692848.4304032,-33977.713761057115,-35932.95495902955,-44184.816680528726,-38309.705353940175,-38066.02663588842,-38258.318693437424,-43967.669483145415,187500.0
1660692848.430412,-33307.98844194275,-35510.59639580207,-44171.00330245535,-38491.894422995385,-38273.7861006005,-38444.01698637212,-44221.22767224642,187500.0
1660692848.4304216,-33858.46720438805,-35469.78211042668,-44115.0121825948,-38244.90764676424,-38143.85541008179,-38270.47804242111,-44123.39408676554,187500.0
1660692848.430431,-33797.42459028061,-35981.88292764222,-44399.48283427749,-37913.00659334738,-37946.869486197174,-38067.16657485564,-43903.65408702542,187500.0
1660692848.430446,-33702.09440017872,-36039.103393447804,-44302.878594741655,-37905.74227639941,-38000.11134148972,-38150.2033055071,-43793.77291128313,187500.0
1660692848.4304554,-33729.34117666974,-35676.222822215896,-44183.65438981705,-37937.52645701486,-38037.729327408,-38129.79616281941,-43844.421964218855,187500.0
1660692848.4304645,-33819.39635508017,-35906.04345870536,-44451.78591630291,-37740.83110580815,-37759.91949557298,-37815.84356020016,-43634.002641916595,187500.0
1660692848.4304736,-33484.567223139675,-35755.54916328778,-44262.980730888936,-37853.21567692944,-37913.83360789223,-37912.470151480455,-43693.50298565662,187500.0
1660692848.430483,-33547.77795645928,-35643.67868228897,-44107.79256913574,-37921.34379402921,-38020.58553941078,-37906.45753222198,-43535.02911746849,187500.0
1660692848.4304922,-33669.9972951409,-35729.50938099735,-43851.44041197782,-37823.08552540369,-38003.709972347024,-38008.247376471445,-43349.77785942291,187500.0
1660692848.4305015,-33430.92303644693,-35237.01104366911,-43838.02936530464,-37712.64555605001,-37919.332137028236,-38098.12374092624,-43946.56943637961,187500.0
1660692848.4305105,-33276.87481366096,-34902.7854088289,-43959.64520688596,-37836.273054632315,-37950.9598554325,-38074.63205750371,-43788.47554784722,187500.0
1660692848.4305196,-33296.521997037176,-35476.50998550773,-44070.88983904003,-37800.77848443729,-37858.021301987326,-37979.23481216846,-43366.63107474221,187500.0
1660692848.4305289,-33153.98492264568,-35727.29655829627,-44140.493171273854,-37551.17655410487,-37615.90720604744,-37683.07419813564,-43898.75905498971,187500.0
1660692848.4305377,-33197.28025165561,-35504.69553526587,-43905.28576437065,-37523.23687353574,-37643.332796494105,-37657.05676758966,-43784.362826867444,187500.0
1660692848.430547,-33402.89394889998,-35263.766081782116,-43712.32315448799,-37600.30568841764,-37687.3433813266,-37773.79992887973,-43438.42487793266,187500.0
1660692848.430556,-33381.41392247843,-35348.92622815684,-44014.11640812355,-37659.15783156846,-37658.46492749035,-37643.71277614984,-43353.644711213674,187500.0
1660692848.430565,-33053.089148174426,-35403.3080224166,-43948.446982913854,-37749.83885882364,-37711.68443103843,-37644.42803197241,-43266.42820434907,187500.0
1660692848.4305742,-34017.276348743006,-35345.260542066164,-43722.716715659706,-37602.987897752275,-37566.509850801216,-37573.99768519374,-42670.68715938177,187500.0
1660692848.4305832,-33552.56122977272,-35148.58754260392,-43818.002202272684,-37495.29719296661,-37459.22147741574,-37552.160030860905,-43154.66948207253,187500.0
1660692848.4305923,-32968.085464010896,-35095.36803905583,-43690.88783155535,-37472.58782060001,-37434.20987537025,-37551.17655410487,-43862.28100803864,187500.0
1660692848.4306018,-33363.823099592104,-34804.08010531427,-43374.94592367958,-37488.77048358566,-37523.32628051356,-37651.580590198115,-43725.46598022771,187500.0
1660692848.430611,-32947.723024812105,-34562.59185821913,-43088.95535337393,-37784.59582145164,-37817.38583056758,-37912.336041013725,-43757.33956782098,187500.0
1660692848.43062,-33046.40597658229,-34225.84047625548,-42929.40860145195,-37848.90179024956,-37837.56945581072,-37910.43614273502,-43790.21898391473,187500.0
1660692848.430629,-33748.92130481259,-34524.83976183412,-43507.78234097747,-37420.97764265271,-37393.7755696506,-37428.26431134514,-43393.49787157749,187500.0
1660692848.43064,-33428.55375153467,-35599.64574571201,-44030.18731238691,-37083.488653122025,-37055.19134464161,-37085.81323454538,-43013.339401881625,187500.0
1660692848.4306495,-32967.861946566336,-35575.72937914483,-43966.37308196701,-37104.052258020914,-37088.2048712021,-37121.240749507044,-43030.93022476795,187500.0
1660692848.4306586,-33186.99844920617,-35223.53294176256,-43768.80601272655,-37203.048134213466,-37172.2250786096,-37153.2707993115,-42973.17331709544,187500.0
1660692848.430668,-33014.73355468912,-35183.053932554,-43470.544334714934,-37301.35110632791,-37277.077111849445,-37223.522332134526,-42967.98771238181,187500.0
1660692848.4306767,-32929.975739714595,-35380.777464005645,-43449.89132283823,-37261.296780264,-37239.70499512017,-37194.39800910926,-42790.55956489558,187500.0
1660692848.430686,-33508.28242400676,-35162.78090033304,-43561.89591430377,-37210.938300006186,-37199.38244812279,-37200.70120104566,-42437.49140947955,187500.0
1660692848.4306953,-32901.030230644974,-34826.968291636505,-43191.952191823984,-37350.25672319612,-37381.43740671127,-37340.35490040242,-42998.40843658548,187500.0
1660692848.430704,-32537.76967975732,-34369.24926868072,-43164.10191823267,-37338.790278290544,-37357.52104014409,-37402.11277033243,-43213.87925313464,187500.0
1660692848.4307132,-32659.229059127458,-34545.2022010329,-43241.528361025856,-37219.051983243466,-37149.80627892092,-37220.21427395514,-42826.36705951298,187500.0
1660692848.4307227,-32890.39080028424,-34437.73501369179,-42902.38534240548,-37135.568217702894,-37061.91921972266,-37061.606295300284,-43159.229237941414,187500.0
1660692848.4307318,-32622.192218565015,-34391.846882325044,-42831.41855375988,-37115.69751688212,-37049.2457806165,-37004.45288472806,-43252.88304720915,187500.0
1660692848.4307408,-32599.25932875387,-34278.16591002535,-43041.68141385096,-37084.31566766687,-37023.38481228171,-37030.649129229685,-42922.47956067081,187500.0
1660692848.43075,-32769.57962150331,-34240.6820345738,-43233.39232604412,-36963.951523775046,-36921.84083722125,-36943.678491554085,-42703.41011326434,187500.0
1660692848.4307587,-32853.622180655264,-34956.63076122174,-43423.06922949186,-36595.55007166268,-36558.44617586686,-36571.901926028964,-42557.117945804355,187500.0
1660692848.430768,-32599.68401189852,-34912.329603711325,-43146.7346127909,-36672.32831386665,-36638.376014039044,-36681.47017734888,-42670.508345426126,187500.0
1660692848.4307773,-32671.254297644413,-34610.603405309135,-42935.041241054685,-36825.14719070759,-36789.89848970157,-36827.38236515312,-42778.08729148952,187500.0
1660692848.4307864,-32590.810369349765,-34354.854745251505,-42821.315565266086,-36903.266537578886,-36889.11788333868,-36920.387973831654,-42816.86756811948,187500.0
1660692848.4307957,-32665.666361530588,-34365.40476863441,-43015.37341062706,-36979.888317571684,-36942.270331653395,-36943.09734619824,-42499.092817198376,187500.0
1660692848.4308045,-32799.41920035114,-34537.69201489592,-43079.746434658344,-36922.33257559926,-36879.707798922995,-36836.39011816861,-42072.5321260133,187500.0
1660692848.4308136,-32635.290340815827,-34543.99520683232,-42980.45998578787,-36712.36028818611,-36675.94929646842,-36654.98336016934,-42489.48156708259,187500.0
1660692848.4308228,-32239.083318601053,-34426.380327508494,-42686.33338050049,-36891.01778161738,-36858.49599343491,-36882.32295302427,-42488.74395951557,187500.0
1660692848.430832,-32022.986653207143,-34222.91239773183,-42654.25862720712,-36948.573523589796,-36918.711592997504,-36959.816451050814,-42622.18387391375,187500.0
1660692848.4308426,-32120.194389843273,-34327.29504433811,-42728.175846120816,-36743.16099204552,-36704.514825882296,-36727.42536394899,-42850.12696386898,187500.0
1660692848.4308517,-32181.37111441745,-34590.4644835549,-42985.77970096823,-36624.272063287746,-36547.650283294955,-36568.191536449376,-42694.201194548754,187500.0
1660692848.430861,-32312.173522969908,-34444.77581319521,-42944.07134581463,-36603.082609544115,-36548.23142865079,-36547.918504228415,-42463.53119176998,187500.0
1660692848.4308703,-32284.14443542295,-34328.591445516526,-42784.457538659284,-36621.455743486375,-36608.82700786913,-36622.170999308946,-42462.7712324585,187500.0
1660692848.430879,-32034.90013300182,-34060.6387329863,-42713.04371512458,-36761.489422498875,-36714.0143172758,-36660.615999772075,-42622.45209484722,187500.0
1660692848.4308884,-32071.221717741697,-34030.37447099382,-42692.63657243688,-36689.472101863874,-36630.754069179784,-36541.7270710143,-42504.65840156775,187500.0
1660692848.4308977,-32140.780346486612,-34287.039552574104,-42628.77763852807,-36586.028228524716,-36497.247099548236,-36492.30736402361,-42394.844281058824,187500.0
1660692848.4309068,-32235.7082051883,-34291.241680531704,-42721.045639639575,-36495.4142565029,-36427.621415569956,-36383.275554570624,-42340.8424664548,187500.0
1660692848.4309158,-32020.7067752727,-34123.55889362799,-42645.20617070272,-36527.08667839607,-36466.73696836674,-36389.80226395158,-42248.86503802121,187500.0
1660692848.430925,-31973.90222238329,-33928.91990291118,-42358.70151027459,-36601.83091185462,-36542.732899514784,-36489.468692477785,-42357.53921956292,187500.0
1660692848.430934,-31815.897740828725,-34028.89925585977,-42446.521514239495,-36568.37035040502,-36529.05363190814,-36530.864123209016,-42184.089682589736,187500.0
1660692848.4309433,-31836.081366071867,-34183.28275481257,-42530.02763152452,-36573.019513251726,-36524.627986505984,-36557.10507119955,-41736.227778938744,187500.0
1660692848.4309528,-31851.213497068107,-34150.47039395218,-42621.69213553573,-36482.830224374564,-36444.60874135599,-36460.657293874894,-41761.93228506235,187500.0
1660692848.4309618,-31591.128598586158,-34122.57541687196,-42683.94174384377,-36278.08824516395,-36263.04552114553,-36260.76564321109,-42234.80579075882,187500.0
1660692848.4309711,-31553.57766790124,-34025.658252913745,-42538.18601825071,-36281.73157951017,-36264.11840487938,-36268.99108517064,-42305.370248004234,187500.0
1660692848.4309804,-31637.061433441813,-33903.729486910044,-42376.67231281666,-36282.1115591659,-36261.12327112237,-36269.84045145994,-42205.39089505564,187500.0
1660692848.4309895,-31444.79172763726,-33840.42934661262,-42251.30137816684,-36306.296146666544,-36303.47982686518,-36302.94338499825,-42239.18673267207,187500.0
1660692848.4309983,-31526.2414844324,-33741.43347042006,-42183.91086863409,-36239.062099344985,-36240.91729413477,-36240.42555575676,-42260.353834671245,187500.0
1660692848.4310076,-31777.16216768768,-33753.704578126024,-42255.61526484672,-36156.785328005,-36161.59095306289,-36167.78238627701,-42117.302670157274,187500.0
1660692848.4310167,-31672.22072747001,-33765.595706176246,-42319.362440033256,-36133.18188586019,-36139.55213302995,-36147.59876103386,-42009.18728222696,187500.0
1660692848.431026,-31604.740810959436,-33859.003646254976,-42265.49473589596,-36150.906819213254,-36154.6842640262,-36161.30038038497,-42023.87237833409,187500.0
1660692848.4310513,-31540.43484216152,-33621.583416650705,-42045.95590185594,-36175.359627647355,-36181.97574400613,-36185.26145044106,-42064.75371894285,187500.0
1660692848.431063,-31510.014117957846,-33526.92377888248,-42035.383526728576,-36156.91943847173,-36158.104080927864,-36161.41213910725,-42084.579716274704,187500.0
1660692848.4310725,-31673.78534958188,-33832.09214593079,-42280.87273608121,-36003.45236104159,-36007.9003581882,-35998.19970109459,-41794.49877673373,187500.0
1660692848.431094,-31749.535411540917,-33970.38238887577,-42420.12410403778,-35929.51279038344,-35926.227083948506,-35885.81512997331,-41507.88235758333,187500.0
1660692848.4311032,-31731.408146787664,-33918.19106557263,-42300.81049213535,-35898.309755123824,-35895.09110392226,-35891.470121320504,-41633.275643977606,187500.0
1660692848.4311123,-31608.87588368367,-33793.31186930083,-42218.332555095265,-35928.037575249386,-35935.100726497265,-35985.95094513309,-41736.808924294586,187500.0
1660692848.4311216,-31290.14000775099,-33626.27728298632,-42112.85467301067,-35958.860630853254,-35978.30664852937,-36014.22590186905,-41871.656998593455,187500.0
1660692848.4311306,-31400.043535237735,-33601.51155012984,-41968.23888638483,-35961.721654143534,-35947.57299990332,-35972.47284322653,-41825.99238467126,187500.0
1660692848.4311397,-31482.476768788907,-33536.087994109155,-41908.78324613372,-36028.06163168688,-35995.51749175996,-35961.18521227661,-41651.55937094204,187500.0
1660692848.4311488,-31236.38406233598,-33486.42241792946,-41993.80928204171,-35973.545726960394,-36031.81672475538,-36026.407602597195,-41630.03464103158,187500.0
1660692848.431158,-31298.410153199453,-33483.33787719463,-41985.00269472632,-35789.121483459654,-35841.402213740614,-35892.34183935426,-41821.589091013564,187500.0
1660692848.431167,-31430.55366641923,-33414.449800783375,-41802.38894252646,-35741.60167474767,-35716.612424446634,-35722.89326463858,-41735.57957834954,187500.0
1660692848.4311762,-31356.949371927905,-33290.151749867415,-41718.16756941886,-35840.217571284484,-35787.243936925406,-35786.059294469276,-41560.58777100894,187500.0
1660692848.4311852,-31226.07990814208,-33365.11950077051,-41827.84757946105,-35738.226561334915,-35782.058332211775,-35740.97582590292,-41509.55873841748,187500.0
1660692848.4311943,-31126.83816276052,-33378.441140465875,-41856.59192283057,-35608.49703651632,-35671.97599076939,-35645.42211835648,-41525.16025604728,187500.0
1660692848.4312036,-31137.11996520996,-33260.2004122973,-41717.04998219609,-35647.701996290925,-35664.823432543686,-35638.895408975535,-41388.88167010328,187500.0
1660692848.4312127,-31373.891994225025,-33202.33174590251,-41674.87224040893,-35597.298812544206,-35620.634033755545,-35596.53885323273,-41212.727572051,187500.0
1660692848.4312215,-31291.503464162764,-33125.441744976255,-41466.64338906329,-35557.445652180395,-35575.550565189194,-35568.75563487478,-41479.07095898044,187500.0
1660692848.4312308,-31158.041198020128,-33150.185126088276,-41554.73161396165,-35523.962738986345,-35613.61558599658,-35588.11224557307,-41494.136034743315,187500.0
1660692848.43124,-31100.574863025533,-33156.04128313557,-41706.29879311309,-35537.396137403986,-35608.76525744978,-35552.952951544874,-41317.66901226866,187500.0
1660692848.4312491,-31083.364019794946,-33145.75948068613,-41611.21447220021,-35502.50506430925,-35556.46217542436,-35508.13770391198,-41266.50586921047,187500.0
1660692848.4312599,-31120.22204640175,-33104.02877378807,-41568.589695523944,-35445.19519152584,-35481.248555332255,-35456.66163643142,-41369.88268731626,187500.0
1660692848.431269,-31010.720850315196,-33113.72943088167,-41606.90058552034,-35414.66270859989,-35458.40507249893,-35433.281711731164,-41380.5668211659,187500.0
1660692848.4312782,-30977.17088188778,-33110.86840759139,-41550.216561581685,-35390.27695539915,-35416.13792373394,-35385.80660650809,-41299.13941611522,187500.0
1660692848.4312873,-31173.17332901637,-33000.942528360196,-41487.78813931801,-35396.177815935356,-35376.038894181125,-35351.496678769196,-41142.6101496947,187500.0
1660692848.4312963,-31041.85683034144,-32911.0661639054,-41422.78926644198,-35439.853124601024,-35434.53340942066,-35418.99894702422,-41044.21777060244,187500.0
1660692848.4313054,-30952.31574205348,-32899.39855329973,-41317.98193669104,-35360.32561782904,-35368.32754234404,-35358.626885250436,-41044.73186072491,187500.0
1660692848.4313147,-30999.164998431803,-32983.21759500713,-41358.90798078871,-35267.63293357288,-35273.71260806473,-35239.17916288128,-40904.4076090345,187500.0
1660692848.4313235,-30989.33023087147,-33070.8587850164,-41437.04967940446,-35238.84388671445,-35284.17322446981,-35236.54165703555,-40599.730980364206,187500.0
1660692848.4313328,-30924.64428241781,-32911.870826705795,-41213.01814472892,-35241.34728209344,-35252.50080257664,-35223.979976651666,-40854.965550299356,187500.0
1660692848.431342,-30784.52119642749,-32781.24723210898,-41139.12327755967,-35234.88762794586,-35197.6049181944,-35161.37274043235,-41326.006212950495,187500.0
1660692848.431351,-30708.07823039034,-32791.0372961804,-41228.37379316972,-35247.89634321885,-35203.997517108626,-35160.88100205434,-41314.78563723393,187500.0
1660692848.4313605,-30936.155430812294,-32838.62416012576,-41237.716822352035,-35219.554331249514,-35162.57973463294,-35135.08708895291,-41147.751050919425,187500.0
1660692848.4313693,-30940.715186681176,-32817.32294765984,-41052.867895706644,-35260.59213406946,-35201.40471475181,-35188.06072331199,-41114.33519295874,187500.0
1660692848.4313784,-30805.71065017112,-32735.38145248669,-41128.64030941013,-35309.65421314886,-35216.89447365933,-35191.16761579128,-41092.07285548125,187500.0
1660692848.9107425,-30764.538736884446,-32721.501019179945,-41208.50309234895,-35262.40262537034,-35150.5991996049,-35110.8354462189,-41000.363647981125,187500.0
1660692848.9108875,-30740.443556361624,-32722.81977210281,-41185.637257771166,-35248.47748857469,-35138.99864423259,-35068.72475966511,-40931.40851633651,187500.0
1660692848.910898,-30608.702374542045,-32662.47006207348,-41093.078683981745,-35230.93136917727,-35153.236705450625,-35138.30574015448,-40951.10040320163,187500.0
1660692848.9109094,-30588.608156276725,-32619.84528539721,-40995.73683687888,-35233.12184013389,-35131.220237162146,-35148.274618181546,-40969.65235109954,187500.0
1660692848.91092,-30675.35527650777,-32758.80608067585,-41168.20289709603,-35218.54850274903,-35104.17462637122,-35070.82582364391,-40842.64973910448,187500.0
1660692848.9109297,-30694.93540465062,-32767.925592413616,-41144.55475146231,-35171.43102543724,-35107.19211187269,-35067.450710231155,-40778.12025286201,187500.0
1660692848.9109387,-30682.910166133664,-32690.432094387066,-41053.06906140674,-35229.500857532126,-35113.3388415979,-35071.54107946647,-40512.91680489979,187500.0
1660692848.9109485,-30522.782268855844,-32549.258476407347,-41035.07590712022,-35226.75159296412,-35102.72176298163,-35085.80149242896,-40571.478375372695,187500.0
1660692848.9109635,-30429.64254971058,-32554.06410146524,-40997.502624690846,-35074.04447484547,-34979.787168477436,-34967.49370902702,-40947.926455488974,187500.0
1660692848.9109733,-30407.871950611112,-32560.769624801833,-40970.85934530012,-35047.8258785994,-34950.215810563066,-34926.67942365163,-40927.96634769039,187500.0
1660692848.9109826,-30337.821583488178,-32533.254627377348,-40937.734060017356,-35021.69668933114,-34930.233351020026,-34895.92342328113,-40835.76540181225,187500.0
1660692848.9109924,-30354.697150551936,-32537.30029312376,-40943.34434787564,-35030.257407457524,-34962.59867699131,-34917.87283633624,-40840.146343725486,187500.0
1660692848.9110017,-30356.19471743044,-32529.901865709053,-40939.76806876279,-35036.337081949365,-34972.47814804055,-34919.90684508167,-40789.13966287848,187500.0
1660692848.911011,-30391.644584136557,-32520.044746404263,-40909.36969630357,-35025.83176205537,-34943.420880248654,-34905.22174897453,-40696.29051641113,187500.0
1660692848.911033,-30410.420049479017,-32531.578246543202,-40911.89544342702,-34953.68033095364,-34898.98561227151,-34880.32190565132,-40562.26945665711,187500.0
1660692848.911042,-30391.95750855893,-32480.593917440645,-40822.75668653926,-34916.77760085793,-34882.15474869666,-34861.88171647569,-40674.92224871186,187500.0
1660692848.9110513,-30236.456422383362,-32408.107210172086,-40769.15720333543,-34835.79723069635,-34783.829424837764,-34752.62638957815,-40597.54050940758,187500.0
1660692848.9110816,-30082.47525483075,-32319.39313642897,-40713.456656152804,-34739.77413651635,-34705.50891226636,-34690.645002203586,-40538.39779357884,187500.0
1660692848.911091,-30120.227351215763,-32288.68183954738,-40655.61034150247,-34696.05412436177,-34681.57019395473,-34662.95119082346,-40502.83616815045,187500.0
1660692848.9111009,-30009.005070806157,-32228.9579783628,-40590.05267501505,-34711.78975245831,-34715.70130773799,-34668.24855425937,-40442.46410637666,187500.0
1660692848.9111104,-30113.097144734522,-32233.942417376333,-40578.94385802077,-34637.87253354461,-34653.11642326313,-34626.115515961115,-40437.07733596293,187500.0
1660692848.9111197,-30094.992231725722,-32183.203957462785,-40570.6737125723,-34605.79778025124,-34622.56158859272,-34597.90761445852,-40449.19198145771,187500.0
1660692848.9111292,-30107.19628419832,-32188.27780345414,-40572.730073062194,-34609.08348668617,-34615.90076874504,-34570.258506567305,-40341.25540748303,187500.0
1660692848.9111388,-30014.525951686617,-32163.51207059766,-40521.075191625976,-34556.84745989412,-34586.88820444205,-34550.27604702426,-40310.00766873451,187500.0
1660692848.911148,-30083.1011036755,-32178.644201593903,-40549.90894197332,-34524.258616478284,-34584.5636230187,-34557.4062535055,-40292.08156968136,187500.0
1660692848.9111576,-29979.478416380694,-32056.24604895664,-40426.348498624386,-34482.41615085795,-34514.91558729596,-34505.21493020236,-40281.218621876076,187500.0
1660692848.9111793,-29945.21319213071,-32000.56785351847,-40352.83361111088,-34501.191616200405,-34507.58421511462,-34482.55026132468,-40354.7782128785,187500.0
1660692848.9111884,-29942.799203729537,-32021.645548539826,-40426.52731258003,-34470.25680187426,-34481.16445316845,-34440.75249919325,-40302.51983434198,187500.0
1660692848.9111977,-29981.355962914942,-31980.071303852954,-40387.27764931651,-34423.943987362865,-34440.30546430415,-34435.745708435265,-40231.508342207475,187500.0
1660692848.911209,-29943.067424663,-31968.157824058275,-40310.164130945705,-34471.15087165247,-34479.510424078755,-34473.095473420086,-40211.592937897796,187500.0
1660692848.9112184,-29986.318050184018,-32009.307385600496,-40329.00665152152,-34398.26183298371,-34407.38134472148,-34395.24434748225,-40054.97426449946,187500.0
1660692848.9112277,-29891.43489497124,-31964.08980656741,-40286.40422658971,-34308.11724759546,-34324.12109662546,-34313.36990754246,-40087.58545965976,187500.0
1660692848.9112368,-29864.81396732497,-31884.919927706713,-40261.280865821944,-34266.76652035314,-34281.47396820474,-34280.468139704244,-40145.05179465435,187500.0
1660692848.9112458,-29900.174427053265,-31876.918003191713,-40275.42952006216,-34260.35156969447,-34291.68871542081,-34301.679945192336,-40142.83897195327,187500.0
1660692848.911255,-29937.72535773818,-31919.54277986798,-40316.15439845972,-34298.61775620196,-34317.035593633125,-34331.98891067373,-40102.04703832234,187500.0
1660692848.911264,-29959.49595683765,-31928.505829394562,-40306.87842451077,-34251.4332236568,-34276.73539838021,-34293.05217183258,-40053.96843599897,187500.0
1660692848.9112732,-29895.055877573002,-31882.058904416434,-40218.05259204538,-34149.73278638515,-34213.077630171494,-34245.55471486506,-40070.441671662535,187500.0
1660692848.9112823,-29925.431898287763,-31895.715820278627,-40211.77175185344,-34147.07292879497,-34196.29147008556,-34239.76561305113,-40055.756575555395,187500.0
1660692848.9112911,-29943.223886874188,-31890.17258765371,-40222.05355430288,-34137.57343740147,-34139.13805951334,-34218.44204884077,-40024.28531936232,187500.0
1660692848.9113004,-29891.2560810156,-31807.38172619125,-40120.643689709155,-34141.216771747684,-34132.700757110215,-34166.04955983753,-39984.521565976334,187500.0
1660692848.9113095,-29860.63419111183,-31784.895871269215,-40070.95576178501,-34140.90384732531,-34137.014643790084,-34172.15158607383,-39984.163938065045,187500.0
1660692848.9113183,-29798.921024670726,-31723.495629250483,-40077.19189848803,-34164.73080691467,-34087.036143188016,-34110.01373648807,-39916.013469220816,187500.0
1660692848.9113276,-29795.2329868356,-31668.59974486825,-40029.4485723315,-34170.47520523968,-34098.81551251597,-34124.96705352868,-39926.205864692434,187500.0
1660692848.911337,-29825.698414528182,-31673.718294348517,-40033.740107266916,-34150.179821274265,-34087.952564710686,-34110.93015801074,-39911.96780347441,187500.0
1660692848.911346,-29860.164804478267,-31731.18462934311,-40069.659360606594,-34112.003041744596,-34023.579540679406,-34039.27046528703,-39820.25859597428,187500.0
1660692848.911355,-29857.594353865905,-31658.54145986336,-39995.45156901498,-34061.93513416471,-34006.078124770895,-34018.23747375458,-39817.53168315073,187500.0
1660692848.911364,-29906.142342822834,-31691.912614335135,-40031.39317409911,-34010.81669459542,-33942.17448737317,-33966.24731615154,-39746.72135671632,187500.0
1660692848.9113731,-29886.785732124536,-31711.1351145667,-40072.16275598559,-33980.01599073601,-33964.50388008403,-34000.981927035085,-39747.05663288315,187500.0
1660692848.9113822,-29745.813279844915,-31575.661191423085,-39924.261262924825,-33968.86247025281,-33993.44938915365,-34015.376450464304,-39758.567781277634,187500.0
1660692848.9113913,-29693.53254956395,-31499.195873641478,-39777.87968848702,-34080.91176520727,-33990.32014492991,-33975.5679935894,-39730.91867338642,187500.0
1660692848.911402,-29707.07770670387,-31487.841187458183,-39783.601735067576,-33996.6233368663,-33906.18817880013,-33908.46805673457,-39657.26967540618,187500.0
1660692848.9114113,-29627.997234820992,-31420.093050014148,-39790.173147937436,-33916.02294636046,-33853.616875841246,-33831.98038720851,-39575.30582848857,187500.0
1660692848.9114203,-29607.3889264332,-31469.535108749285,-39786.30629614667,-33910.21149280208,-33878.226146486544,-33857.57313460984,-39587.10754956097,187500.0
1660692848.9114296,-29513.578654954275,-31436.208657766423,-39724.90605412794,-33911.32908002485,-33891.771303626454,-33877.533242408426,-39588.895689117395,187500.0
1660692848.9114385,-29509.89061711915,-31443.89765785905,-39760.78060397871,-33919.48746675104,-33914.34656552631,-33896.77809438445,-39600.36213402297,187500.0
1660692848.9114475,-29489.103494775714,-31508.85182724617,-39819.0963052626,-33898.27566126295,-33920.158019084694,-33891.994821071006,-39609.347535294,187500.0
1660692848.9114568,-29473.97136377947,-31470.60799248314,-39765.47447031432,-33849.012416483456,-33899.92969035264,-33836.71895703304,-39576.64693315589,187500.0
1660692848.9114668,-29361.050350791258,-31382.095084440123,-39703.09075153956,-33816.758849234444,-33848.61008508326,-33771.9212498571,-39540.25829318265,187500.0
1660692848.911476,-29298.018431427296,-31369.578107545152,-39708.41046671992,-33747.31197921181,-33729.318824925285,-33679.00504815639,-39447.85618160441,187500.0
1660692848.9114852,-29284.853253943118,-31386.87835775356,-39713.417257477915,-33776.101026070246,-33778.15738656013,-33731.48694413745,-39485.67533322279,187500.0
1660692848.9114945,-29260.132224575547,-31346.511107267277,-39691.467844422805,-33767.38384573267,-33777.419778993106,-33694.51715880837,-39387.95350646419,187500.0
1660692848.9115036,-29171.753426999265,-31257.931143990892,-39623.36207906748,-33699.09926642171,-33702.6531937901,-33624.19857075198,-39423.33631793694,187500.0
1660692848.9115124,-29184.940956227896,-31303.886330591005,-39666.83622203305,-33694.919490208566,-33686.247013359905,-33618.588282893696,-39428.410163928296,187500.0
1660692848.9115217,-29095.064591773105,-31234.52886754619,-39513.99499344766,-33644.82923088422,-33618.49887591587,-33599.96927976242,-39469.33620802596,187500.0
1660692848.9115307,-29145.400720286456,-31298.61131889955,-39541.06295598304,-33650.32776002023,-33590.42508488001,-33546.25803783632,-39303.39685718976,187500.0
1660692848.9115398,-29063.07924545756,-31199.146056073438,-39527.4283918653,-33675.94285916601,-33616.934253804,-33498.29119423523,-39387.774692508545,187500.0
1660692848.9115489,-29041.7556812472,-31220.17904760588,-39540.57121760502,-33629.74180337689,-33582.06553245372,-33498.49235993533,-39222.438838772636,187500.0
1660692848.911558,-28999.01914584865,-31192.84286413704,-39496.694743239255,-33639.12953604812,-33612.75447759086,-33501.44279020343,-39183.0997685313,187500.0
1660692848.911567,-28897.117542876906,-31093.15408386637,-39408.6512218298,-33638.74955639238,-33612.19568397947,-33532.44465976294,-39258.42514734568,187500.0
1660692848.9115765,-28899.777400467086,-31011.816085793507,-39262.224943903086,-33601.01981175182,-33562.15012814404,-33511.72459265287,-39283.59321160236,187500.0
1660692848.9115856,-28974.946317070284,-31055.312580503534,-39345.50754374356,-33494.424342444465,-33419.478943285816,-33506.024897816766,-39304.022706034506,187500.0
1660692848.9115949,-29009.390355275915,-31174.112102283492,-39531.56346458953,-33455.01821696976,-33339.280884180174,-33360.58209664608,-39153.26018968346,187500.0
1660692848.9116056,-28941.306941665047,-31112.19777014229,-39439.04959428902,-33494.223176744366,-33437.69561501689,-33339.03501499117,-39130.12613417222,187500.0
1660692848.911615,-28921.90562747784,-31041.320388474513,-39362.40546255177,-33516.217293288384,-33490.89276682052,-33428.509048045766,-39146.0405762244,187500.0
1660692848.9116237,-28964.128072753916,-30989.777265760575,-39302.7263048561,-33413.64513798298,-33374.75310263075,-33371.35563747354,-39079.99117135897,187500.0
1660692848.9116328,-28922.844400744965,-31030.74801334715,-39296.42311291971,-33337.87272427949,-33283.17800559736,-33268.80583391259,-39028.358641667204,187500.0
1660692848.9116423,-28911.109734905927,-31048.204725766747,-39323.245206266074,-33290.5093777787,-33212.47943788522,-33167.038341407584,-38976.703760230994,187500.0
1660692848.9116514,-28963.412816931348,-31011.972548004695,-39331.40359299226,-33234.071223029045,-33149.2240010767,-33173.14036764388,-38972.47928052894,187500.0
1660692848.9116604,-28836.32079795847,-30920.911541093774,-39214.0569346019,-33348.15452672893,-33234.987644551715,-33311.050630933125,-38954.73199543142,187500.0
1660692848.9116695,-28739.783613656,-30780.319068469893,-39022.994222997935,-33371.53445142919,-33314.626910045976,-33348.579209873584,-39106.58974726078,187500.0
1660692848.9116783,-28809.588111589925,-30801.530873957978,-39054.28666523536,-33296.521997037176,-33203.874016269925,-33271.622153713965,-39053.906685579626,187500.0
1660692848.9116876,-28827.13423098734,-30802.961385603117,-39042.10496450722,-33208.41142039435,-33115.025832060084,-33202.2870424136,-38934.056631810265,187500.0
1660692848.9116971,-28721.20931401364,-30783.582423160366,-39099.41483729063,-33098.820817329986,-32985.29630724148,-33112.991823314645,-38912.531901899805,187500.0
1660692848.9117064,-28873.290583287548,-30945.69962569471,-39205.80914089789,-33038.6499212563,-32967.012580277034,-32991.75596138906,-38704.45951276535,187500.0
1660692848.9117155,-28887.685106716766,-30915.323604979945,-39048.1175837657,-33066.47784310315,-33074.747988551615,-33032.90552293128,-38768.60901935209,187500.0
1660692848.9117246,-28852.48110919966,-30844.513278545535,-39127.68979402659,-33099.26785221909,-33014.39827852229,-32961.290533696476,-38762.88697277153,187500.0
1660692848.9117336,-28734.44154673118,-30746.456175620104,-39043.98251104147,-33190.23945215219,-33100.631308630866,-32982.65880139575,-38853.813869215715,187500.0
1660692848.9117427,-28897.028135899087,-30871.31302014745,-39111.66359325214,-33209.59606285048,-33132.79546890205,-32748.56898171532,-38646.83671555957,187500.0
1660692848.9117517,-28885.7181532047,-30850.570601292922,-39041.70263310702,-33148.91107665432,-33062.07454944546,-32581.176767489527,-38606.536520306654,187500.0
1660692848.911761,-28564.45653014857,-30498.88825403312,-38709.734524456806,-33170.748730987165,-33047.65767427179,-33045.601313781895,-38781.34951369161,187500.0
1660692848.91177,-28638.709025229102,-30566.949315899532,-38772.0511879982,-32950.6287515913,-32814.618386580754,-33236.61932189695,-38808.73040064936,187500.0
1660692848.9117792,-28648.744958489533,-30633.512810887434,-38970.42292003905,-32867.055579072905,-32721.299853479846,-33013.90654014427,-38731.30395785617,187500.0
1660692848.9117885,-28794.32187012695,-30590.619813277703,-38785.90926956049,-32959.815318562425,-33030.40212755229,-32770.5854500038,-38661.45475643334,187500.0
1660692848.9117992,-28822.283902440537,-30539.344911497228,-38522.80688557707,-33083.53222412255,-33108.54382616804,-32711.912120808618,-38587.91751717538,187500.0
1660692848.9118085,-28488.795875167358,-30343.744795768835,-38567.800947165604,-33136.32704452599,-33040.88509570183,-32846.156698007195,-38624.015584470704,187500.0
1660692848.9118173,-28609.919978370664,-30531.32063523777,-38821.53795022225,-32993.70056315667,-32841.90986656069,-32764.77399644542,-38347.12217415836,187500.0
1660692848.9118264,-28480.123398318698,-30424.434593252492,-38671.04365480467,-32873.69404717613,-32887.84270141634,-32951.165193458226,-38602.066171415594,187500.0
1660692848.9118357,-28694.029592755986,-30503.98445176893,-38658.83960233207,-32817.568816848856,-32802.794313763894,-32839.384119437236,-38584.83297644055,187500.0
1660692848.9118447,-28926.934769980286,-30594.53136855738,-38877.506718338336,-32776.97804891802,-32794.702982271076,-32450.66493161499,-38351.659578282786,187500.0
1660692848.9118538,-28662.021894695987,-30353.266638906796,-38868.9236484675,-32841.21696248257,-32879.97488736807,-32468.121644034585,-38396.02779102657,187500.0
1660692848.9118629,-28437.275104197874,-30260.23867848381,-38563.688226185826,-32897.31984106539,-32870.94478260813,-32720.18226625708,-38503.11499871195,187500.0
1660692848.911872,-28434.81641230779,-30380.803988075735,-38684.141777055476,-32923.963120456116,-32832.27626470045,-32692.331992665768,-38274.30019072297,187500.0
1660692848.9118812,-28291.11704720462,-30208.69555576987,-38612.68325003186,-32898.03509688796,-32837.43951766962,-32752.81581316183,-38431.052974588034,187500.0
1660692848.9118903,-28544.205849672064,-30351.366740628095,-38489.68160029431,-32612.782134149333,-32650.22130611197,-32518.256606847837,-38620.19343616885,187500.0
1660692848.911899,-29052.328056374557,-30828.777650449,-38998.519062819374,-32297.15315069594,-32259.110481633008,-32144.937770955297,-38259.97272252711,187500.0
1660692848.9119084,-29112.208379770327,-30890.312002934457,-39001.84947274321,-32030.407432366304,-31986.888585911824,-32216.32924274555,-38190.168224593195,187500.0
1660692848.9119177,-28502.45279102955,-30201.744163244268,-38343.903522956796,-32585.892985569597,-32694.075428733282,-32632.809297181288,-38357.046348696516,187500.0
1660692848.9119265,-28376.210138345974,-29968.995448231155,-38343.322377600954,-32852.75046262151,-32972.08642626839,-32595.481883940924,-37986.14150120515,187500.0
1660692848.9119356,-28530.07954717631,-30314.62047274357,-38711.36620180204,-32596.331250230225,-32582.182595990016,-32371.15977658746,-37966.47196608448,187500.0
1660692848.9119449,-28271.35810510613,-30217.12216342952,-38613.01852619869,-32467.94283007894,-32376.814767934655,-32628.853038412697,-38247.4780973766,187500.0
1660692848.911954,-28357.85935614817,-30146.78122362867,-38568.158575076886,-32342.92952334041,-32277.05893243062,-32500.48697000587,-38415.13853253586,187500.0
1660692848.911963,-28724.517372193026,-30455.6376285121,-38832.60206372763,-32061.319894947996,-32236.736385433243,-31960.71469315466,-38323.898711669295,187500.0
1660692848.9119723,-28448.026293280876,-30404.340374987172,-38662.79586110066,-32347.31046525365,-32458.979780552363,-31896.654593545747,-38198.63953574176,187500.0
1660692848.911981,-28129.71510049285,-30061.956353420777,-38343.59059853442,-32587.010572792362,-32683.36894313919,-32064.091511260453,-38068.59708650078,187500.0
1660692848.911992,-28160.33699039662,-29980.64070709237,-38195.08560837336,-32660.257239372404,-32757.934362642096,-32314.0287177597,-37840.81045875674,187500.0
1660692848.9120011,-28558.55566961237,-30387.554214901236,-38230.80369601294,-32478.112873806105,-32570.045598750785,-31875.912174691224,-37804.6229844836,187500.0
1660692848.9120104,-28331.707815135458,-30404.385078476083,-38605.485988317254,-32302.96460425432,-32365.683599195912,-31710.911597122147,-37877.91435455255,187500.0
1660692848.9120195,-28113.018347384736,-30088.733743278237,-38504.85843477946,-32315.570988127114,-32411.057640440184,-32279.785845254166,-37862.22342994493,187500.0
1660692848.9120283,-28072.025248053702,-30016.02351856512,-38451.77304169811,-32112.17011358382,-32394.74086698781,-32392.50569254228,-37838.172952911016,187500.0
1660692848.9120376,-28227.2134098069,-30196.35739283054,-38462.121899380916,-31963.687475167215,-32270.6663335164,-32344.360034985548,-37809.94269966397,187500.0
1660692848.9120464,-28384.14500762761,-30329.7079002509,-38436.88677989087,-31788.919185271166,-31814.757801861502,-32115.0311368741,-37994.29988793134,187500.0
1660692849.3916786,-28012.97193920278,-29997.784495089592,-38325.91036867027,-31766.00864720448,-32087.29262200506,-32154.772538515634,-38144.302444970905,187500.0
1660692849.3918192,-27763.705285037195,-29853.05694974148,-38181.629858211265,-32418.903102743996,-32605.964852090463,-32014.38123159185,-37789.71437093191,187500.0
1660692849.3918307,-28055.842585068058,-30193.0269829067,-38320.21067383417,-32253.321379819085,-32329.317310967126,-31671.21489896952,-37761.8640973406,187500.0
1660692849.3918412,-28365.682466707527,-30478.74933227889,-38631.21284618531,-32231.528428975158,-32155.957180971767,-31024.04249001056,-37416.037907128084,187500.0
1660692849.391851,-28303.499913632862,-30396.69607838346,-38701.7325999418,-32289.53120583668,-32271.202775383328,-30946.437233261735,-37344.42291789328,187500.0
1660692849.3918607,-28099.09321058908,-30222.106602443055,-38236.03400421548,-32016.281129870553,-32092.992316841166,-31521.748783796884,-37475.87352703494,187500.0
1660692849.3918705,-27904.454219872263,-29967.49788135265,-37957.19599213552,-31837.95891260611,-32009.597958278417,-32233.271865042672,-37651.17825879792,187500.0
1660692849.3918803,-27529.011968256473,-29602.493894397485,-37831.06509817423,-31835.008482338013,-32010.782600734547,-32644.856887442696,-38050.760394425444,187500.0
1660692849.3918903,-27734.29038933401,-29788.70627745465,-38100.06834269385,-31821.82095310938,-32050.92633377628,-32196.637355880423,-37756.924361815974,187500.0
1660692849.3919125,-27486.409543324655,-29566.70875152454,-37946.22128560797,-32219.23496952474,-32315.347470682562,-31931.210390473654,-37589.710961545825,187500.0
1660692849.391922,-27488.890586959194,-29528.308454550322,-37890.58779365871,-32340.202610516862,-32302.785790298676,-31816.34477571783,-37493.151425498894,187500.0
1660692849.3919315,-27747.88024996284,-29789.779161188504,-37992.71291407501,-32200.861835582476,-32112.058354861543,-31571.280249509844,-37534.412745763395,187500.0
1660692849.3919408,-27946.274333748144,-29975.611564589926,-38210.709477747616,-31918.671061834226,-31964.93917285671,-31207.438553266355,-37361.320836701496,187500.0
1660692849.39195,-27923.050871259078,-29970.627125576393,-38230.96015822413,-31980.00424861959,-31988.296745812506,-31163.18209924485,-37302.53574878404,187500.0
1660692849.391959,-27972.336467783032,-30006.971062060722,-38252.88721953479,-31803.134894744744,-31769.249650150497,-31247.358768863534,-37295.83022544745,187500.0
1660692849.3919735,-27854.609829736928,-29818.009414435557,-38040.36683325373,-31757.939667456114,-31651.187735937565,-31433.861724598617,-37629.80999109864,187500.0
1660692849.3919828,-27589.249919563525,-29520.351233524234,-37900.55667168578,-31612.988604663446,-31848.330122033374,-32083.0234388141,-37671.20542182987,187500.0
1660692849.391992,-27870.814844467026,-29868.032618526533,-38131.249026209,-31491.484521804396,-31470.071550616212,-31717.795934414382,-37336.286882911554,187500.0
1660692849.3920012,-27950.208240772277,-29915.328909793963,-37888.95611631347,-31656.865079029216,-31612.608625007706,-31443.405919481032,-37265.52125996605,187500.0
1660692849.3920105,-27434.173516532603,-29430.81014523627,-37472.00667524418,-31913.910140265245,-31964.492137967605,-31742.56166727086,-37365.366502447905,187500.0
1660692849.3920197,-27476.373610064224,-29561.791367744372,-37585.441778354856,-31894.151198166754,-31798.9551185316,-31584.378371760653,-37301.686382494736,187500.0
1660692849.3920288,-27513.522209348943,-29424.976339933437,-37659.470755990835,-31978.014943363065,-31819.608130408305,-31342.48779326532,-37175.95781993363,187500.0
1660692849.3920383,-27411.553551143832,-29436.509840072376,-37730.83987603663,-31865.026875141488,-31766.030998948932,-31529.05780423377,-37143.21251430661,187500.0
1660692849.3920474,-27547.318046965367,-29567.80398700285,-37704.576576301646,-31723.205056572566,-31668.040951256866,-31366.515918554775,-37108.72377261207,187500.0
1660692849.3920567,-27786.660526592797,-29814.254321367065,-37939.42635529356,-31682.681343875094,-31499.41939108603,-30850.257676870548,-36755.85678289614,187500.0
1660692849.3920655,-27548.189764999126,-29501.776933881873,-37748.94478904543,-31734.872667178235,-31622.063412912303,-30808.3705077613,-37070.85991750478,187500.0
1660692849.3920748,-26941.608123971004,-28851.497632443625,-37132.81895313489,-31856.26499131501,-31776.424560120653,-31941.067509778444,-37520.286443267636,187500.0
1660692849.3920841,-27186.85146413463,-29039.09582365702,-37030.0903356183,-31627.181962392566,-31556.237525491422,-31942.7885941015,-37416.99903213966,187500.0
1660692849.3920932,-27361.79856798632,-29329.869667276107,-37766.80383286522,-31528.968397255947,-31380.910441983993,-31480.93449842149,-36941.46566885301,187500.0
1660692849.3921025,-27491.081057915817,-29350.343865197166,-37735.37728016106,-31475.055989629745,-31314.1904847849,-31216.535713259665,-36817.10056270368,187500.0
1660692849.3921115,-27343.69365497752,-29190.886520253007,-37422.92224442032,-31610.082877884255,-31445.75285264884,-31110.96842419725,-36938.80581126283,187500.0
1660692849.3921208,-27446.10934807174,-29362.36910371412,-37446.6374452874,-31335.759918184274,-31230.013815166214,-31201.828265408072,-36865.045054560316,187500.0
1660692849.39213,-27693.900787103274,-29645.029264095934,-37528.601292205014,-30943.196230315716,-31142.84201179052,-30982.89292846834,-36927.40642159062,187500.0
1660692849.3921387,-27922.112097991958,-29882.918880333767,-37639.421241214426,-31162.422139933366,-31238.3733675925,-30417.39379374907,-36794.681763015,187500.0
1660692849.3921483,-27578.431675247157,-29528.71078595052,-37541.23002782226,-31336.67633970694,-31457.420463254508,-30758.4590623926,-36740.67994841099,187500.0
1660692849.3921573,-27273.173901221027,-29188.852511507575,-37425.04566014357,-31202.051782852624,-31454.917067875514,-31387.794779276228,-36937.732927528974,187500.0
1660692849.3921683,-27144.94194328093,-29087.42029516939,-37248.53393418001,-31239.937989704373,-31337.05631936268,-31651.79123303786,-37066.18840291362,187500.0
1660692849.3921776,-27235.220639135914,-29204.834008793117,-37593.890737758964,-30990.291355883048,-31301.628804401018,-31289.402400183964,-36733.102707040634,187500.0
1660692849.3921864,-27220.021452906305,-29204.096401226092,-37615.30370894715,-31156.387168930432,-31368.572279044663,-30935.753099412097,-36591.4373506829,187500.0
1660692849.3921957,-27116.756393522788,-29032.25618985369,-37332.15181018732,-31300.354754967066,-31511.310519136256,-30777.726266113077,-36697.3622676566,187500.0
1660692849.3922048,-27066.30850628716,-28903.308976091026,-37156.55650574643,-31290.408228684453,-31395.059096224202,-31193.80398914862,-36778.14147211808,187500.0
1660692849.392214,-27192.372345015094,-29087.241481213747,-37281.72627469615,-31073.082217345505,-31207.93029164437,-31044.20376350925,-36697.1611019565,187500.0
1660692849.3922231,-27129.228666928848,-29126.58055145509,-37278.01588511657,-30958.08249212295,-31177.867195351984,-31130.68266280683,-36718.842294078146,187500.0
1660692849.392232,-27068.566032477145,-29061.08994020104,-37220.28132918851,-30936.490706979122,-31090.02483964263,-31225.632873252976,-36639.895932662,187500.0
1660692849.3922412,-27159.31411496569,-29132.727281180298,-37254.12187029384,-30928.22056153066,-31106.63218577292,-30971.60529751841,-36344.137650029385,187500.0
1660692849.3922503,-27086.55918676367,-29025.014224650175,-37192.766331764025,-30931.72978541014,-31100.843083958996,-30966.46439629369,-36559.586114834085,187500.0
1660692849.3922591,-27027.81880233512,-28988.335011999014,-37006.79981789587,-30967.60433526091,-31115.841104488507,-31021.96377777622,-36595.527719918224,187500.0
1660692849.3922684,-27287.993107794897,-29251.727968660354,-37123.43122046366,-30885.953412765673,-31065.90730737535,-30367.817624547202,-36536.4744110673,187500.0
1660692849.3922777,-27636.121527686304,-29612.95451080257,-37328.12849618537,-30640.531258646402,-30929.248741775602,-29725.383785412763,-36580.2838301997,187500.0
1660692849.3922865,-27216.6239877491,-29147.367673798522,-37276.47361474915,-30621.264054925927,-30909.53450316602,-30572.134920613164,-36502.678573450874,187500.0
1660692849.3922958,-26664.044161325,-28638.44080429564,-37066.05429244689,-30769.679638109166,-30904.952395552686,-31324.606397701074,-36517.94481491385,187500.0
1660692849.392305,-26663.954754347178,-28636.652664739213,-36831.696251833,-30913.043727045504,-30917.424668958745,-31266.93889700638,-36508.199454331334,187500.0
1660692849.392314,-26767.77860734208,-28717.78949711198,-36978.59191639327,-30794.735943643565,-30952.628666475855,-30861.165328164738,-36249.545067494524,187500.0
1660692849.3923233,-26879.60438485198,-28857.08556855745,-37099.090170751835,-30699.808084941877,-30847.351950091357,-30601.080429682785,-36275.71896025169,187500.0
1660692849.3923323,-26778.775665614092,-28681.24439492755,-36948.908799756624,-30883.315906919946,-31000.70726879922,-30562.52367049738,-36354.24063852318,187500.0
1660692849.3923414,-26614.356233400853,-28596.95596658659,-36882.03238034635,-30920.106878293383,-31034.503106415643,-30770.774873587477,-36396.999525666186,187500.0
1660692849.3923504,-26826.07195688152,-28788.06338167946,-37020.61319596925,-30632.86461029823,-30773.926469555674,-30733.402756858202,-36358.50982171414,187500.0
1660692849.3923612,-27026.477697667804,-28953.376883670913,-37144.173639318185,-30717.8012392284,-30681.144378321696,-30376.467749651405,-36064.74084433804,187500.0
1660692849.3923705,-26833.53743952959,-28788.912747968763,-36948.19354393405,-30789.86326335231,-30814.472533997603,-30422.266474040327,-36168.34117988839,187500.0
1660692849.3923795,-26773.232432989174,-28791.03616369202,-36948.35000614524,-30630.20475270805,-30764.762254328998,-30702.222073343048,-36183.138034717806,187500.0
1660692849.3923888,-26674.03539109652,-28782.162521143262,-36864.195688271015,-30484.44902711499,-30750.390082644237,-30834.656159240745,-36344.85290585195,187500.0
1660692849.392398,-26638.630227879315,-28665.32995287537,-36656.72679623685,-30688.699267947588,-30817.646481710257,-30592.7208772565,-36406.007278681675,187500.0
1660692849.3924072,-26767.8680143199,-28805.676556310245,-36773.49230927137,-30803.453123981137,-30786.152873772728,-30489.99225973991,-36156.89708672727,187500.0
1660692849.3924165,-26784.45300870574,-28802.03322196403,-36883.842871647226,-30788.946841829642,-30758.8613937928,-30363.21316518941,-36083.69512363614,187500.0
1660692849.3924253,-26752.132386223366,-28779.234442619618,-36757.8237364082,-30593.39142959016,-30657.898564088176,-30423.853447896654,-36059.19761171313,187500.0
1660692849.3924344,-26740.218906428687,-28743.650465446768,-36770.31836155872,-30491.60158534069,-30538.76376614139,-30442.91948591703,-36234.92702662075,187500.0
1660692849.3924437,-26534.91813360669,-28583.27669897994,-36752.23580029438,-30612.25630191044,-30574.079522380773,-30321.728327480356,-36254.440099530235,187500.0
1660692849.3924527,-26633.51167839905,-28620.55940873139,-36651.63059850104,-30530.560675926292,-30626.74023231748,-30373.092636238653,-36131.23728409258,187500.0
1660692849.3924615,-26411.961187358047,-28408.687223039535,-36623.73562142082,-30670.996686338985,-30666.325171747827,-30529.554847425803,-36004.301727330894,187500.0
1660692849.3924708,-26504.184484980644,-28569.060989506364,-36838.178257725034,-30604.276729139892,-30563.082464108764,-30322.46593504738,-35899.24852839095,187500.0
1660692849.3924797,-26506.799639081913,-28503.190398596576,-36756.14735557406,-30739.54948658341,-30633.02107250942,-30215.40107910646,-35861.60819072821,187500.0
1660692849.3924887,-26431.496612011983,-28469.93100284708,-36609.855188114074,-30498.105942977185,-30496.56367260977,-30343.364816113095,-35982.17350032014,187500.0
1660692849.3924978,-26445.220583107544,-28458.15163351913,-36560.793109034676,-30473.966058965452,-30472.200271153484,-30109.274996432665,-35980.40771250817,187500.0
1660692849.392507,-26268.1500635326,-28262.104482901632,-36427.666119058864,-30372.91382228301,-30437.577418992212,-30429.039052610286,-35915.96763324352,187500.0
1660692849.392516,-26515.114488019288,-28410.76593527388,-36562.178917190904,-30292.67105968846,-30275.348457735596,-30137.05821479061,-35790.37318114915,187500.0
1660692849.3925252,-26504.519761147472,-28481.285689030374,-36479.56686968409,-30375.841900806656,-30342.7613190128,-29950.0188171886,-35814.8036378388,187500.0
1660692849.3925343,-26269.58057517774,-28334.41237621455,-36324.17754223079,-30435.8339829247,-30478.637573556614,-30147.54118294015,-35790.104960215685,187500.0
1660692849.3925433,-26325.236418871453,-28318.18500974,-36320.33304218448,-30304.60689122759,-30333.083013663654,-30211.042488937677,-35815.831818083745,187500.0
1660692849.3925524,-26596.83246574789,-28449.792081092844,-36676.39633135752,-30247.878163800022,-30272.88976584551,-29793.84717867937,-35543.386404918005,187500.0
1660692849.392563,-26327.985683439456,-28293.709849561437,-36494.855462891515,-30378.38999967456,-30363.324923911685,-29844.451528126185,-35722.02154660482,187500.0
1660692849.3925726,-26108.44684939943,-28111.520780506227,-36282.670352777284,-30175.05618036463,-30236.478774127816,-30451.50255578787,-35880.38365607067,187500.0
1660692849.3925817,-26213.254179150365,-28119.65681548796,-36234.14471556481,-30183.639250235472,-30183.773360702202,-30328.05387116121,-35801.481998143434,187500.0
1660692849.392591,-26185.64977474806,-28051.126366987988,-36126.655176479246,-30282.299850261195,-30225.392308877985,-30259.32225696114,-35853.159231324105,187500.0
1660692849.3926003,-26309.88077043066,-28142.27678087673,-36330.9724725452,-30155.051369077133,-30147.317665495597,-30181.158206600932,-35793.48007362844,187500.0
1660692849.392624,-26419.18080081711,-28336.804012871267,-36510.524035754686,-30275.7954926247,-30274.7449606353,-29587.80879829035,-35478.00755238623,187500.0
1660692849.3926473,-26112.3137011902,-28047.013646008214,-36165.100176942375,-30461.22556462593,-30382.01098227632,-29784.906480897247,-35627.04898441422,187500.0
1660692849.3926694,-26084.821055510172,-28092.14181806348,-35962.39220647719,-30161.98040985828,-30103.485894618738,-30216.093983184575,-35799.336230675726,187500.0
1660692849.3926785,-26329.706767762516,-28318.587341140195,-36281.75393125462,-29894.430028728253,-29886.897490846815,-29791.544949000472,-35583.21721353736,187500.0
1660692849.3926876,-26216.673996052028,-28251.84503219665,-36360.02974033711,-30198.391401575973,-30144.389586971953,-29654.595810722807,-35310.61533816044,187500.0
1660692849.3926969,-26166.829605916693,-28145.00369370028,-36132.13135387079,-30280.288193260218,-30217.859770996547,-29740.761785598017,-35491.68681999288,187500.0
1660692849.392706,-26031.378034517533,-27867.775007221106,-35997.75266620549,-30194.345735829564,-30173.78213093068,-30095.7521910372,-35644.95273172292,187500.0
1660692849.3927147,-26156.50309997834,-27919.541647379596,-36148.89516221228,-30098.38969688293,-30054.08853937251,-29828.9394174742,-35483.774302455706,187500.0
1660692849.392724,-26032.652083951485,-27919.631054357418,-36153.007883192055,-30099.596691083516,-30078.116664661964,-29788.46040826564,-35538.51372462675,187500.0
1660692849.392733,-25884.37061123498,-27828.83826837996,-35904.322374382304,-30128.184572241855,-30097.562682338084,-30087.102065933,-35533.12695421302,187500.0
1660692849.3927422,-26121.343805950142,-27950.387054727922,-36064.09264374884,-29955.494994580153,-29925.454250032217,-29866.646810370305,-35286.31899193752,187500.0
1660692849.3927512,-26065.86677621207,-27907.069373973536,-36106.493902980554,-29880.706057632695,-29839.84706876839,-29712.35271839532,-35324.54047495609,187500.0
1660692849.3927605,-26122.17082049499,-27959.886546121426,-36177.818319537444,-29788.41570477673,-29732.31282619391,-29630.05359531088,-35290.74463733967,187500.0
1660692849.392769,-26080.88714848604,-27935.47844117623,-36096.39091448676,-29789.153312343755,-29773.238870291578,-29617.983653305015,-35181.66812439777,187500.0
1660692849.3927784,-26034.239057807812,-27888.249205142165,-36007.40861981018,-29718.61120684281,-29718.11946846479,-29479.17932023756,-35236.87693320238,187500.0
1660692849.3927877,-25824.602046561486,-27600.582254002366,-35701.74851438386,-29923.263779075598,-29877.73327562014,-29643.35288326179,-35272.86324177543,187500.0
1660692849.3927984,-25759.357304496447,-27542.534773651932,-35679.46382516192,-29980.41718964782,-29948.342436354455,-29695.454799587107,-35366.6958649988,187500.0
1660692849.3928075,-25985.42284791742,-27657.467443641122,-35673.65237160354,-29892.552482194005,-29890.80904612649,-29585.081885466803,-35320.315995254045,187500.0
1660692849.3928165,-25866.757436604195,-27772.623631074865,-35481.516776265715,-29802.139675872288,-29790.33795479989,-29626.38790922021,-35357.777518961135,187500.0
1660692849.3928256,-25712.08336497347,-27670.90084205876,-35610.86632142858,-29732.759861083017,-29660.80959568138,-29694.53837806444,-35262.80495677054,187500.0
1660692849.392835,-25739.531307164587,-27619.201257133634,-35966.01318907895,-29650.57249672085,-29540.55721051183,-29581.550309842863,-35142.86549602336,187500.0
1660692849.3928437,-25891.50081771622,-27693.56551093644,-35847.928923121566,-29666.44223528412,-29567.356952113743,-29248.442262225424,-34965.07972062584,187500.0
1660692849.3928533,-25686.021230938582,-27543.384139941234,-35720.85925589314,-29817.987062691103,-29725.40613715722,-29229.800907349698,-35024.088325987854,187500.0
1660692849.392862,-25508.548379963446,-27417.47676342449,-35627.58542628115,-29745.388596700264,-29714.63259632976,-29594.983708260504,-35162.4009206773,187500.0
1660692849.3928711,-25767.292173778078,-27491.841017227296,-35547.67793985343,-29648.404377508687,-29596.816551305837,-29539.104347122237,-35125.20761790367,187500.0
1660692849.3928802,-25887.142227547436,-27704.026127341527,-35873.34285656725,-29448.624485567154,-29442.075424441748,-29212.59006411911,-34919.81743810385,187500.0
1660692849.3928893,-25579.515168609047,-27472.797330951373,-35693.25485149084,-29650.81836590986,-29629.047766810392,-29383.15622605756,-35017.40515439572,187500.0
1660692849.3928983,-25539.304380333946,-27415.129830256683,-35563.90530632798,-29701.40036361222,-29557.365722342223,-29448.244505911414,-35031.866733058305,187500.0
1660692849.3929076,-25579.515168609047,-27438.643865423666,-35563.95000981689,-29583.249042421467,-29485.88484357415,-29355.037731532782,-34846.59312326826,187500.0
1660692849.3929164,-25545.048778658962,-27391.36992590069,-35554.785794590214,-29506.87313161768,-29492.88093958866,-29254.32077101717,-34847.10721339074,187500.0
1660692849.3929255,-25426.56218130138,-27345.54884976731,-35533.97632050232,-29482.77795109486,-29410.403002548577,-29150.67573197791,-34835.66312022962,187500.0
1660692849.3929348,-25393.839227418808,-27314.59168369671,-35334.17407681633,-29572.006114960448,-29485.50486391841,-29216.613378121066,-34839.88759993167,187500.0
1660692849.3929436,-25427.07627142385,-27275.386723922104,-35209.294880544534,-29493.775009366873,-29420.48363929792,-29277.74539920633,-34825.18015208008,187500.0
1660692849.392953,-25401.394117044703,-27325.097003590705,-35411.48876088724,-29391.851054650673,-29283.288631831245,-29165.87491820752,-34702.55848199827,187500.0
1660692849.3929617,-25300.83361874028,-27181.33058325417,-35304.580367157505,-29452.089005957725,-29357.988161800884,-29081.921766033385,-34795.787608121354,187500.0
1660692849.3929713,-25249.648123937623,-27088.63789899801,-35127.845123749394,-29414.91805492855,-29329.534391109275,-29140.282170806193,-34849.58825702527,187500.0
1660692849.8715615,-25160.77758798332,-27157.861251576098,-35061.61690492832,-29334.272960933802,-29267.016561867782,-29170.72524675432,-34754.99567449041,187500.0
1660692849.8717167,-25295.20097913754,-27162.197490000428,-35279.94874476776,-29180.090627681093,-29152.083891878596,-29121.417298485914,-34689.01332485835,187500.0
1660692849.8717341,-25275.6655544836,-27150.596934628124,-35452.21363928481,-29126.267627032714,-29055.189079664837,-29014.3971460339,-34616.63837631206,187500.0
1660692849.8717458,-25157.26836410384,-27071.449407511882,-35168.07826376895,-29186.282060895213,-29109.637929157965,-28834.175030490762,-34454.52117377772,187500.0
1660692849.8717608,-25080.0207352663,-26977.080342421574,-35050.19516351166,-29201.525950613734,-29123.183086297882,-28836.410204936292,-34447.10039461856,187500.0
1660692849.8717875,-25051.34344713014,-26957.924897423378,-35129.119173183346,-29120.00913858523,-29025.70712872829,-28778.45213156368,-34468.312200106644,187500.0
1660692849.8718133,-25110.48616295888,-27000.996708988754,-35143.96073150167,-29053.244477897228,-28971.347686212983,-28721.343424480372,-34336.88394270944,187500.0
1660692849.8718247,-25006.371737286063,-26915.836562614033,-35042.08148027438,-28987.4409422208,-28916.049470430553,-28768.058570391964,-34333.08414615204,187500.0
1660692849.871837,-24828.116575254986,-26803.675508937304,-34936.49183946751,-28974.991020559195,-28893.407153297325,-28811.26449242407,-34387.08596075606,187500.0
1660692849.8718488,-24798.969900485266,-26703.09265888842,-34894.29174593589,-29026.13181187294,-28968.218441989236,-28800.8485795079,-34377.25119319573,187500.0
1660692849.8718607,-24916.718890275824,-26786.039982562066,-34879.13726319519,-28948.63831384639,-28878.94557463474,-28664.48058658607,-34373.1608239604,187500.0
1660692849.8718722,-24860.59365994855,-26770.05848527652,-34784.097645771224,-29003.087163339518,-28939.33998815298,-28597.581815431335,-34315.582730243535,187500.0
1660692849.8718843,-24608.06365109249,-26747.751444310124,-34685.124121323126,-29014.531256500635,-28952.192241214783,-28762.58239300041,-34362.11906219948,187500.0
1660692849.871896,-24602.252197534108,-26691.93913840522,-34726.094868909706,-28961.98230528621,-28893.34009806396,-28727.043119316473,-34311.805285430586,187500.0
1660692849.871907,-24804.602540088006,-26694.04020238402,-34713.443781548,-28824.89905654181,-28754.871041163333,-28594.8996060967,-34215.335156361485,187500.0
1660692849.8719301,-24866.807444907125,-26667.240460782108,-34885.686324320595,-28683.948956006643,-28566.289373193908,-28576.839396576812,-34207.065010913015,187500.0
1660692849.8719416,-24811.710394824793,-26632.46114640965,-34812.976099607484,-28714.995529055064,-28588.104675782288,-28513.136924879185,-34093.13816942432,187500.0
1660692849.871952,-24819.779374573158,-26694.710754717682,-34870.68830379109,-28594.251405507497,-28633.72458621557,-28409.983624217944,-34028.98866283759,187500.0
1660692849.8719633,-24677.15289320384,-26590.88690172278,-34734.20855214698,-28688.888691531265,-28699.43871491417,-28490.293442045862,-34147.13998402834,187500.0
1660692849.8719735,-24525.742176263593,-26464.510138572474,-34563.01654136378,-28773.110064638862,-28756.055683619463,-28452.764863105403,-34139.07100427998,187500.0
1660692849.8719835,-24503.09985913037,-26448.841565709303,-34619.5217513468,-28799.865102751864,-28676.774046036488,-28389.95646118599,-33970.27063015349,187500.0
1660692849.8719933,-24575.497159421106,-26465.18069090613,-34529.55597991419,-28700.243377714563,-28598.31942299836,-28347.912829865556,-33976.864394767814,187500.0
1660692849.8720043,-24608.242465048133,-26499.021232011466,-34568.850346666615,-28681.37850539428,-28580.616841389758,-28406.98849046093,-34071.68049474723,187500.0
1660692849.8720193,-24515.929760447714,-26446.181708119122,-34550.65602668,-28617.027833107455,-28530.034843687397,-28356.920582881045,-34002.12186600231,187500.0
1660692849.8720284,-24435.30701819742,-26406.21678903303,-34512.92628203944,-28561.439044647104,-28499.59176773927,-28308.394945668573,-33936.13951637024,187500.0
1660692849.8720381,-24349.92335437815,-26322.464802558996,-34486.148892181984,-28553.682989321114,-28466.421778967593,-28292.815779783225,-33928.405812788704,187500.0
1660692849.872048,-24308.684385858105,-26307.556189007308,-34390.48342591327,-28530.459526832048,-28444.293551956842,-28272.54274756226,-33901.60607118679,187500.0
1660692849.8720572,-24238.723425712997,-26235.404757905577,-34262.11735750644,-28533.745233266978,-28457.30226722983,-28253.946096175445,-33805.582977006794,187500.0
1660692849.8720665,-24278.554234332354,-26187.70613523795,-34076.79904422749,-28487.141846077666,-28415.14687718712,-28258.371741577597,-33813.58490152179,187500.0
1660692849.872076,-24301.129496232214,-26181.84997819066,-34218.754973263145,-28384.346173327707,-28294.715678061926,-28162.415702630962,-33818.25641611295,187500.0
1660692849.872085,-24233.56017274382,-26148.098844063144,-34333.195904874316,-28292.480503616396,-28192.232929734342,-28035.055462724624,-33669.1479288516,187500.0
1660692849.8720944,-24209.75556489892,-26126.529410663774,-34307.06671560606,-28284.210358167933,-28179.827711561647,-28024.036052708158,-33606.31717518773,187500.0
1660692849.872104,-24261.969239946517,-26042.48685151182,-34150.023359063074,-28295.0286024843,-28201.464200194383,-28024.88541899746,-33610.92163454552,187500.0
1660692849.872114,-24312.10420275977,-26078.651974040506,-34280.35638098197,-28300.951814764958,-28200.68188913845,-28044.242029695753,-33692.66196401858,187500.0
1660692849.8721237,-24176.138541238135,-26111.754907578816,-34255.21066846975,-28351.019722344845,-28259.981067178378,-28083.44698947036,-33707.72703978146,187500.0
1660692849.8721333,-24160.805244541796,-26116.627587870073,-34220.45370584175,-28304.393983411075,-28240.69151171345,-27994.218825604778,-33607.92650078851,187500.0
1660692849.8721428,-24121.175601622537,-26063.072808155157,-34237.26221767214,-28271.425160339495,-28186.82380757616,-27967.642601447416,-33595.94596576047,187500.0
1660692849.872152,-24113.039566640804,-26021.543266957196,-34169.871708139384,-28263.49029105786,-28150.792795514204,-28000.790238474638,-33601.9809367634,187500.0
1660692849.8721616,-24058.166034003025,-25985.825179317617,-34066.22666910013,-28191.607080889593,-28086.79975113866,-27914.199580454777,-33536.87030516509,187500.0
1660692849.8721707,-24067.10673178515,-25958.444292359865,-34125.16821922877,-28136.91236220746,-28112.83953342909,-27886.729286519207,-33508.461237962394,187500.0
1660692849.8721802,-24019.43046086198,-25881.06255305559,-34054.380244538814,-28146.74712976779,-28058.79301533616,-27842.31637028651,-33461.7460920508,187500.0
1660692849.8721895,-23946.295553004213,-25858.554346389097,-33919.08513535084,-28189.1036855106,-28019.073965439078,-27783.687744580242,-33440.95896970737,187500.0
1660692849.872199,-23845.802109933153,-25854.508680642688,-33914.32421378186,-28170.9987725018,-28017.241122393745,-27776.132854954347,-33414.5392077612,187500.0
1660692849.8722084,-23834.268609794213,-25790.783857200608,-33922.124972596765,-28082.88819585898,-27961.093540322014,-27794.148360985324,-33386.621878936516,187500.0
1660692849.8722196,-23775.90820502141,-25748.67317064681,-33898.767399640965,-28075.668582399918,-27915.540685122098,-27750.338941852922,-33376.09420729807,187500.0
1660692849.872229,-23843.321066298613,-25695.766591521096,-33844.92204724813,-28079.624841168505,-27908.924568763327,-27739.16306962527,-33370.685085139885,187500.0
1660692849.8722386,-23864.890499697984,-25706.80835328202,-33809.74040147548,-28056.26726821271,-27887.288080130587,-27726.422575285742,-33333.33532015506,187500.0
1660692849.872248,-23856.083912382594,-25739.352493208946,-33853.92980026362,-27979.24315681972,-27846.496146499652,-27730.28942707651,-33328.88732300846,187500.0
1660692849.8722572,-23783.4630946473,-25668.765684219085,-33841.30106464637,-27903.62720532742,-27828.279474768577,-27667.65983911274,-33289.078866133554,187500.0
1660692849.8722663,-23677.292308484593,-25567.512281836545,-33733.74447032744,-27888.584481308997,-27734.983293412126,-27560.97496282756,-33179.91294621384,187500.0
1660692849.8722758,-23649.374979659915,-25510.24711254205,-33675.42876904354,-27830.715814914205,-27686.52471143302,-27504.6932702891,-33137.109355581924,187500.0
1660692849.8722854,-23674.520692172133,-25557.632810787298,-33684.83885345922,-27828.03360557957,-27685.787103865994,-27477.468845542535,-33099.62548013037,187500.0
1660692849.872295,-23746.538012807134,-25618.96599757266,-33731.73281332646,-27844.551544732043,-27693.81138012545,-27482.520339789433,-33093.23288121616,187500.0
1660692849.872304,-23711.088146101018,-25529.58137149589,-33634.21215226795,-27795.534169141552,-27662.004847765547,-27469.28810707189,-33099.62548013037,187500.0
1660692849.8723133,-23611.108793152427,-25472.763237090498,-33528.28723529425,-27765.15814842679,-27646.000998735548,-27473.691400729585,-33106.12983776687,187500.0
1660692849.8723228,-23532.98944628113,-25386.463151748558,-33516.9101973665,-27699.779295895016,-27594.212006832604,-27428.585580418778,-33025.99883389459,187500.0
1660692849.872332,-23517.298521673503,-25346.02884602891,-33495.899557578516,-27584.98073637256,-27490.991650937995,-27330.193201326514,-32950.29347542447,187500.0
1660692849.8723414,-23491.728126016635,-25334.405938912147,-33470.32916192164,-27637.440280609168,-27489.024697425928,-27283.790979837297,-32883.81938741438,187500.0
1660692849.8723507,-23398.834276060377,-25270.971688147987,-33413.399268793975,-27644.816356279418,-27477.379438564712,-27303.304052746782,-32928.67933853619,187500.0
1660692849.8723605,-23391.637014345768,-25258.566469975292,-33326.5180380962,-27667.078693756903,-27501.78754350991,-27339.826803186752,-32938.11177469633,187500.0
1660692849.8723695,-23419.844915848367,-25252.24092629444,-33277.835938672535,-27612.629844263774,-27487.750647991976,-27328.717986192463,-32935.38486187278,187500.0
1660692849.8723788,-23394.654499847235,-25193.254672676885,-33358.27986696719,-27508.761287779962,-27414.28046396738,-27272.995087265386,-32910.08268714937,187500.0
1660692849.8723884,-23252.49740511148,-25154.966134424943,-33356.201154732844,-27532.83411655833,-27376.729533282465,-27214.075888881194,-32845.664959629175,187500.0
1660692849.8723977,-23268.098922741287,-25216.589893888224,-33399.92116688743,-27486.186025880103,-27306.5450556928,-27140.024559500762,-32761.30947605485,187500.0
1660692849.8724067,-23335.19885959612,-25150.875765189623,-33297.08079064856,-27451.227897552002,-27287.501369416877,-27118.7009952904,-32774.854633194765,187500.0
1660692849.872418,-23236.582963059303,-25035.87603996707,-33131.454364234734,-27502.72631677703,-27334.03770137283,-27168.210109258904,-32812.025584223935,187500.0
1660692849.8724277,-23186.895035135156,-25011.19971408841,-33210.33367041751,-27467.321153559824,-27282.963965292452,-27129.809812284686,-32764.550479000867,187500.0
1660692849.8724372,-23145.8125288263,-24995.642899947514,-33177.90128921286,-27357.32821909526,-27177.731952396865,-27016.508819640738,-32663.45353882951,187500.0
1660692849.8724463,-23084.43463855203,-24931.113413705043,-33068.467148359676,-27334.417681028568,-27147.914725293485,-26993.19595017385,-32641.012387396386,187500.0
1660692849.8724558,-23050.37058000214,-24905.45361107035,-33037.46527880016,-27352.880221948653,-27128.93809425093,-26994.022964718697,-32638.17371585056,187500.0
1660692849.8724651,-23100.550246304305,-24951.7887773262,-33086.54970962402,-27267.92124127403,-27080.725381460834,-26964.38455157096,-32611.061049826272,187500.0
1660692849.872475,-23061.121769085144,-24914.17079140792,-33043.88022945884,-27259.42757838101,-27095.477532801335,-26927.303007519604,-32561.082549224207,187500.0
1660692849.872484,-23029.829326847714,-24874.49644499975,-32984.7375136301,-27293.15636076407,-27096.572768279646,-26908.438135199325,-32552.968865986928,187500.0
1660692849.8724933,-23005.398870158064,-24842.39933996193,-32934.49079209456,-27187.432609490468,-27027.81880233512,-26863.37701837743,-32529.45483081995,187500.0
1660692849.8725028,-22974.486407576373,-24800.512170852682,-32905.05354464693,-27130.078033218153,-27013.513685883725,-26829.87175343892,-32485.019562842797,187500.0
1660692849.872512,-22940.69056995995,-24792.152618426397,-32946.896010267265,-27193.691097937954,-26995.364069386014,-26815.83485792099,-32461.37141720908,187500.0
1660692849.8725214,-22870.9978307483,-24746.733873693214,-32922.71142276662,-27172.65810640551,-26964.496310293238,-26781.010840059622,-32429.90016101601,187500.0
1660692849.8725307,-22833.581010530117,-24716.313149489542,-32868.5084424625,-27121.539666836223,-26924.866667373975,-26753.138214723855,-32407.101381671597,187500.0
1660692849.8725402,-22826.316693582143,-24672.83900652397,-32738.53304845489,-27043.15209903146,-26880.85608254148,-26718.962397451687,-32364.297791039684,187500.0
1660692849.8725495,-22745.626896098485,-24631.287113581555,-32749.843031149274,-27012.261988194226,-26847.50727981416,-26707.160676379288,-32356.40762524696,187500.0
1660692849.8725588,-22718.53658181865,-24549.18915619721,-32714.594330143256,-26918.921103348865,-26801.10505832494,-26651.303666985474,-32330.725470867812,187500.0
1660692849.8725688,-22690.239273338233,-24516.197981381178,-32574.560651130756,-26968.18434812836,-26795.047735577555,-26621.39703290427,-32306.317365922616,187500.0
1660692849.872578,-22661.897261368904,-24510.52063828953,-32672.126015678172,-26948.783033941156,-26747.416168143296,-26609.572960087415,-32272.029789928176,187500.0
1660692849.8725874,-22636.416272689854,-24485.41962926622,-32727.044251804862,-26968.13964463945,-26766.1692817413,-26605.41553561873,-32272.879156217477,187500.0
1660692849.872597,-22571.350344580456,-24442.03489327847,-32561.26136317985,-26930.0075685987,-26755.68631359176,-26596.094858180866,-32265.77130148069,187500.0
1660692849.8726065,-22563.348420065453,-24417.202105188622,-32509.85235093264,-26837.359587831448,-26636.618570878338,-26494.550883120406,-32167.960067744265,187500.0
1660692849.8726158,-22538.247411042146,-24381.036982659934,-32497.938871137965,-26777.21104350222,-26591.557454056438,-26458.296353613896,-32129.44801204777,187500.0
1660692849.8726268,-22423.225334075134,-24284.052763468357,-32416.086782942628,-26835.571448275026,-26630.047158008478,-26474.210795666077,-32142.948465698777,187500.0
1660692849.8726363,-22429.617932989353,-24262.61744053572,-32463.316018976693,-26763.352961939927,-26567.864604933813,-26408.764887900936,-32079.268345745608,187500.0
1660692849.8726456,-22469.96283173118,-24338.076929816834,-32476.682362160966,-26750.165432711296,-26544.30586627792,-26391.710506881536,-32046.523040118584,187500.0
1660692849.8726552,-22420.63253171832,-24335.81940362685,-32475.117740049096,-26748.019665243588,-26517.930807820656,-26366.11775948021,-32032.642606811838,187500.0
1660692849.8726647,-22328.319827117903,-24224.440661006054,-32394.249128609794,-26671.04025733951,-26455.167109390153,-26319.67083450208,-32011.341394345927,187500.0
1660692849.872674,-22304.60462625082,-24164.82855854375,-32290.469979103804,-26657.22687926613,-26426.892152654193,-26295.799171423816,-31990.66603072477,187500.0
1660692849.8726833,-22309.87963794227,-24143.59440131121,-32272.47682481728,-26520.92594157767,-26393.588053415784,-26262.67388614105,-31966.70496066868,187500.0
1660692849.8726923,-22263.87974785325,-24142.25329664389,-32256.137699620453,-26497.590720366326,-26385.47437017851,-26241.95381903098,-31923.36492816984,187500.0
1660692849.872702,-22153.976220366505,-24028.147641199546,-32165.881355509922,-26612.74690780007,-26362.049741989344,-26188.75666722735,-31869.519575777005,187500.0
1660692849.8727112,-22153.640944199677,-24002.197265886934,-32118.138029353388,-26531.431261471662,-26287.081991086245,-26147.048312073748,-31831.00752008051,187500.0
1660692849.8727207,-22133.792595123363,-24018.75990852832,-32105.576348969502,-26451.546126788395,-26208.225036647924,-26096.131038204556,-31772.065969951866,187500.0
1660692849.8727305,-22054.443902307023,-23940.864079101575,-32078.754255623135,-26401.120591297222,-26185.113332881134,-26059.2506598533,-31734.0903561223,187500.0
1660692849.8727398,-21983.991203783895,-23889.857398254564,-32064.24797347164,-26395.152675527654,-26150.289315019767,-25967.13912095298,-31665.291686688866,187500.0
1660692849.8727636,-21909.71635695891,-23796.717679109297,-31958.725387898136,-26380.668745120616,-26128.92104732049,-25927.196553611346,-31639.609532309718,187500.0
1660692849.8727984,-21926.033130411284,-23754.09290243303,-31840.26114228501,-26329.326788106777,-26089.69373580143,-25945.502632320244,-31640.727119532483,187500.0
1660692849.8728085,-21907.369423791104,-23740.79361448212,-31832.952121848124,-26307.48913377394,-26073.62283153806,-25907.728184190775,-31597.63295622265,187500.0
1660692849.872818,-21919.506421030335,-23741.50887030469,-31780.917260756167,-26205.185199402,-25952.454024845843,-25783.586595486,-31458.068663843715,187500.0
1660692849.8728273,-21825.070300706662,-23684.40016322138,-31681.496701418964,-26225.078251967225,-25980.52781588171,-25792.840217690497,-31467.210527325933,187500.0
1660692849.8728368,-21732.265857728227,-23581.85035966043,-31744.327455082832,-26239.51747888535,-25974.09051347858,-25803.94903468478,-31505.767286511338,187500.0
1660692849.8728464,-21771.135541336007,-23640.613095833432,-31888.898538219757,-26179.614803745128,-25936.60663802703,-25783.832464675008,-31478.341696064675,187500.0
1660692849.8728557,-21749.8343288701,-23604.135048882374,-31853.627485469282,-26180.531225267798,-25917.495896517743,-25762.44184523128,-31436.476878699887,187500.0
1660692849.8728669,-21787.854646188574,-23610.19237162976,-31758.56551630086,-26167.03077161679,-25901.737916676753,-25718.163039465315,-31447.98802709437,187500.0
1660692849.8728762,-21632.42061524637,-23458.49108201159,-31568.73215064194,-26145.93072485098,-25934.773794981695,-25768.946202867774,-31554.315275468267,187500.0
1660692849.872886,-21599.36238519697,-23458.759302945055,-31558.38329295913,-26038.083557854126,-25860.141320245424,-25716.66547258681,-31432.140640275557,187500.0
1660692849.8728957,-21734.612790896033,-23601.58695001447,-31682.59193689727,-25935.489050804266,-25749.455481702746,-25610.4946864241,-31309.89894984948,187500.0
1660692849.872905,-21602.335167209527,-23455.004209876563,-31626.153782147623,-25979.253766447757,-25794.561302013553,-25665.591736506434,-31447.093957316156,187500.0
1660692849.8729143,-21571.31094590556,-23344.47483354507,-31516.71964129444,-26024.001958847282,-25791.76733395664,-25628.756061644086,-31399.328279415167,187500.0
1660692849.8729236,-21826.120832696062,-23537.86212657239,-31548.056787020778,-25937.299542105146,-25674.64419301083,-25417.196800374604,-31119.551494068088,187500.0
1660692849.8729331,-21597.03780377362,-23462.69320996919,-31572.107264054688,-25853.279334697647,-25595.139037983303,-25420.08017540934,-31147.267657192668,187500.0
1660692849.8729424,-21266.1202271128,-23284.61686189376,-31497.36303059614,-25870.847805839516,-25642.010646106082,-25556.71638926463,-31219.32968131658,187500.0
1660692849.872952,-21181.630633071738,-23272.90454779918,-31378.96584021638,-25966.446216874865,-25710.250521928137,-25589.282880936014,-31324.62874944553,187500.0
1660692849.8729613,-21409.327853837953,-23372.59332806985,-31546.849792820194,-25832.268694909657,-25608.50538116758,-25434.22882964955,-31231.779602978186,187500.0
1660692849.8729708,-21700.86165676852,-23418.615569903322,-31530.264798434357,-25723.61686511241,-25513.95750212163,-25264.7131997005,-31054.105586302947,187500.0
1660692850.3511562,-21420.72724351016,-23286.874388083743,-31392.667459567485,-25766.800435400062,-25554.704732263654,-25379.77998015642,-31189.333640257555,187500.0
1660692850.351302,-21157.066065915355,-23317.630388454247,-31463.678951701993,-25806.944168441794,-25591.272186192535,-25463.97900151956,-31131.889657007418,187500.0
1660692850.351313,-21007.622302487172,-23106.093478929222,-31284.149740236968,-25875.586375664043,-25640.22250654966,-25508.503676474535,-31164.97023880127,187500.0
1660692850.3513231,-21372.246309786595,-22733.758119792717,-30990.201948905225,-25853.949887031304,-25624.486878453125,-25524.552228993445,-31234.52886754619,187500.0
1660692850.3513339,-21729.561296649135,-22971.759494752827,-31170.200547003813,-25695.878350243373,-25442.141347186727,-25309.975482222497,-31014.207722450225,187500.0
1660692850.3513432,-21295.713936771626,-23298.273777755952,-31386.11839844208,-25594.91552053875,-25377.388343499704,-25174.300393378784,-30945.610218716887,187500.0
1660692850.3513525,-20693.51323765674,-23076.43271403703,-31207.818532922094,-25756.786853884085,-25518.00316786804,-25353.15905251015,-31180.54940468662,187500.0
1660692850.3513627,-21592.165123482362,-22639.21024074677,-30883.315906919946,-25602.671575864744,-25340.217392470528,-25186.638556318114,-30881.751284808077,187500.0
1660692850.351372,-21411.6524352613,-22362.070961245416,-30721.6010357858,-25727.796641325553,-25515.94680737815,-25393.526302996434,-31077.329048792013,187500.0
1660692850.3513992,-20787.323509135666,-22267.79130313293,-30614.11149670023,-25919.84282968555,-25703.52264684709,-25569.25571790406,-31376.68596228194,187500.0
1660692850.3514087,-20982.163665552576,-22636.595086645495,-31055.781967137096,-25693.084382186462,-25433.401815104702,-25199.93784426902,-30973.169919630283,187500.0
1660692850.3514175,-20836.095015537147,-22736.529736105174,-31110.990775941704,-25679.3604110909,-25363.30674449286,-25210.84549556321,-30783.04598129344,187500.0
1660692850.3514268,-20950.692409359504,-22719.11772717449,-31154.666084607376,-25530.274275574004,-25289.791856979355,-25106.194628023462,-30851.57642979341,187500.0
1660692850.351436,-21912.309159315726,-22605.369699641433,-30965.123291626373,-25287.333165089272,-25034.7584527443,-24752.075940618033,-30576.560566015312,187500.0
1660692850.3514452,-20824.717977609394,-22361.311001933933,-30676.517567219445,-25548.87092696082,-25281.834635953266,-25154.07206464673,-30873.704656804166,187500.0
1660692850.3514545,-20565.907128561394,-22151.18225230959,-30382.1227409986,-25699.029946211573,-25456.871146782774,-25368.537052695403,-31040.962760563227,187500.0
1660692850.3514633,-21021.413328816096,-22749.78432056717,-30924.68898590672,-25332.23781969998,-25003.823638418155,-24824.473240908774,-30617.978348490997,187500.0
1660692850.3514729,-21475.310203470017,-22986.31048039323,-31306.68029864792,-25028.969350930376,-24774.204167628788,-24489.867626412826,-30397.29957548375,187500.0
1660692850.351482,-20799.840486030636,-22527.36211149241,-30814.00314736404,-25242.406158734102,-25075.885662542067,-24941.574030110125,-30694.48836976151,187500.0
1660692850.3514912,-20643.33357135458,-22261.577518174356,-30516.188504241527,-25449.830347279352,-25129.485145745894,-25028.946999185922,-30751.686483822643,187500.0
1660692850.3515005,-20797.985291240846,-22124.740138618963,-30483.46555035896,-25349.694532119578,-25029.0587579082,-24892.556654519638,-30613.642110066667,187500.0
1660692850.3515096,-20626.94974266884,-21840.761225314287,-30364.107234967618,-25417.107393396785,-25157.469529803937,-25002.661347706482,-30799.653327423734,187500.0
1660692850.3515186,-20829.054216033725,-22349.598687839352,-30713.8002769709,-25147.88063143261,-24871.38955252046,-24580.57100541246,-30577.924022427087,187500.0
1660692850.351528,-20786.988232968837,-22351.453882629143,-30793.86422560981,-25041.86630748109,-24741.70473119077,-24468.588765691373,-30395.131456271585,187500.0
1660692850.351537,-20247.394770073268,-21984.885273562108,-30377.63004036308,-25294.8209994818,-25018.933417669945,-24862.605316949528,-30605.7742960184,187500.0
1660692850.351546,-20887.74989697336,-22278.69895442712,-30313.301719820705,-25017.502906024805,-24747.918516149344,-24716.871943100923,-30328.38914732804,187500.0
1660692850.351555,-20928.273609670832,-22516.722681131683,-30875.96218299415,-24684.484265385185,-24444.89591656875,-24358.752293437996,-30008.60273940596,187500.0
1660692850.3515644,-20222.964313383618,-21997.961044068463,-30467.17112865104,-25008.741022198323,-24781.736705510226,-24683.612547351426,-30382.34625844315,187500.0
1660692850.3515737,-19948.127263561164,-21508.435488752784,-29749.41191070222,-25288.00371742293,-25096.404563952037,-25036.121909156074,-30725.73610851003,187500.0
1660692850.3515828,-20550.21620395377,-21896.70764168592,-30024.02544308012,-24941.84225104359,-24704.89140807288,-24619.127764597866,-30297.99077486882,187500.0
1660692850.351592,-20522.075357684538,-22519.18137302177,-30720.37168984076,-24653.772968503592,-24399.566578813385,-24258.5270713004,-29933.299712336033,187500.0
1660692850.3516028,-20388.568388052987,-22209.58736057131,-30444.238238839895,-24871.568366476105,-24621.832325676958,-24399.477171835562,-30026.975873348223,187500.0
1660692850.351612,-20147.884803758243,-21571.109780205465,-30161.622781946993,-25024.364891572583,-24763.408275056874,-24634.19284036074,-30354.71950229639,187500.0
1660692850.351621,-20174.4610279156,-21356.153053778777,-30038.554076976074,-24975.548681682194,-24703.617358638927,-24683.187864206775,-30440.01375913784,187500.0
1660692850.3516304,-20154.724437561566,-21756.562203951147,-30102.278900418154,-24860.794825648645,-24613.651587206317,-24543.221240427643,-30281.092856060608,187500.0
1660692850.3516395,-20369.524701777067,-22222.216096188557,-30366.05183673523,-24644.29582885454,-24395.744430511528,-24200.859570605706,-29963.83219526198,187500.0
1660692850.351649,-20437.026970032093,-22432.233087090623,-30629.53420037439,-24381.461665804585,-24237.717597212508,-24023.453774863934,-29859.091920744413,187500.0
1660692850.351658,-20021.061005718828,-22164.973278638518,-30330.08787990664,-24532.313589133453,-24296.457981641055,-24202.55830318431,-29984.619317605415,187500.0
1660692850.3516672,-19823.516288222825,-21756.629259184512,-30051.540440504607,-24782.98840319972,-24517.606141281864,-24203.206503773512,-30083.19051065332,187500.0
1660692850.3516765,-19854.182881615507,-21293.367003603817,-29785.04059136398,-24968.66434438996,-24756.94862090929,-24335.037092570914,-30224.118259444032,187500.0
1660692850.3516853,-19822.108128322143,-21557.765788765646,-30028.36168150445,-24658.422131350297,-24439.263276966012,-24435.0164455195,-30026.193562292287,187500.0
1660692850.3516943,-19772.599014353636,-21851.71358009739,-30361.916764011,-24469.54989070295,-24282.1305134452,-24263.936193458583,-29801.826751449917,187500.0
1660692850.3517036,-20026.514831365923,-21709.06474698362,-30113.365365667985,-24576.23476698813,-24312.461830671054,-24186.219177987477,-29817.383565590808,187500.0
1660692850.3517127,-19953.111702574697,-21623.211696530783,-29937.099508893432,-24497.80249569446,-24318.29563597389,-24305.91276954565,-29947.917753209804,187500.0
1660692850.351722,-19884.380088374626,-21732.467023428326,-29933.724395480684,-24428.266218694,-24190.041326289338,-24165.34264866622,-29732.491640149554,187500.0
1660692850.3517308,-19854.808730460256,-21686.310671128114,-30020.31505350054,-24352.20323231259,-24128.551677292788,-24099.71792694544,-29655.15460433419,187500.0
1660692850.35174,-19819.202401542952,-21816.50958258028,-30002.947748058767,-24361.25568881699,-24115.45355504198,-23996.542274539745,-29503.3639077382,187500.0
1660692850.3517492,-19882.5919488182,-21818.297722136704,-29961.529965583082,-24298.469638642033,-24096.72279318843,-23892.941938989396,-29491.249262243422,187500.0
1660692850.3517585,-19665.198882245884,-21631.638304190434,-30006.61343414944,-24272.67572554061,-24143.884973989127,-24020.212771917915,-29728.803602314427,187500.0
1660692850.3517673,-19626.75388178276,-21459.552223629027,-29812.555588788462,-24223.92657088358,-24099.29324380079,-23996.542274539745,-29731.418756415696,187500.0
1660692850.3517766,-19449.862176163457,-21308.901466000258,-29760.02898931849,-24272.13928367368,-24117.509915531864,-24047.99599027586,-29651.712435688074,187500.0
1660692850.3517857,-19354.30846861702,-21464.73782834266,-29650.72895893204,-24295.65331884066,-24094.24174955389,-23983.824131944675,-29659.982581136537,187500.0
1660692850.3517964,-19415.932228080303,-21543.818300225532,-29873.240574984622,-24196.23275950346,-23957.4043699985,-23738.6031435255,-29509.421230485586,187500.0
1660692850.3518054,-19873.78536150281,-21430.986694215142,-29632.355824989776,-24115.945293419994,-23874.591156791586,-23718.55362874909,-29522.720518436498,187500.0
1660692850.3518145,-19709.924722900956,-21099.64443440967,-29392.700420939975,-24199.87609384967,-24020.41393761801,-24016.457678849423,-29719.572331854386,187500.0
1660692850.3518236,-19717.99370264932,-21164.017458440954,-29715.50431436352,-24022.80557427473,-23860.7330752293,-23781.160864968406,-29476.541814391832,187500.0
1660692850.351833,-19672.306736982675,-21575.26720467415,-29918.078174361966,-23873.63003178001,-23676.509997428657,-23430.082014808897,-29200.20719769087,187500.0
1660692850.3518422,-19378.627166584392,-21257.045418863945,-29502.089858304247,-24021.062138207217,-23827.607789946534,-23812.18508627237,-29478.575823137264,187500.0
1660692850.3518512,-18942.008190394426,-20924.71968230244,-29286.93196617746,-24154.233831671936,-23955.906803119997,-24030.628684834086,-29659.066159613867,187500.0
1660692850.3518603,-19088.859151465793,-20922.439804367998,-29276.85132942812,-24129.289284859813,-23926.469555672356,-23930.314055718667,-29472.764369578883,187500.0
1660692850.3518693,-19441.12264408143,-20995.798229670316,-29322.225370672393,-24037.37891165959,-23822.243371277258,-23801.120972766992,-29225.844648581107,187500.0
1660692850.3518786,-19554.02130532519,-21423.655322033803,-29656.87568865725,-23753.914088477384,-23525.03222525504,-23472.192701362696,-29037.21827712277,187500.0
1660692850.3518877,-19285.174523016754,-21533.491794287183,-29614.56383640335,-23755.255193144705,-23528.31793168997,-23475.523111286537,-29161.404569316455,187500.0
1660692850.351897,-19142.101006758334,-21034.086767922257,-29094.617556884,-24030.293408667258,-23813.459135706322,-23733.97633242325,-29445.472889598954,187500.0
1660692850.351906,-19419.620265915426,-21086.74747785896,-29358.748121112363,-23801.52330416719,-23618.507220567135,-23510.28007391454,-29190.77476153073,187500.0
1660692850.3519151,-19317.003407121112,-21492.565750189515,-29880.19196751022,-23474.673744997235,-23321.653702456202,-23176.590880941258,-28853.576344677967,187500.0
1660692850.3519244,-18963.309402860334,-21355.281335745018,-29609.91467355665,-23590.634595231368,-23475.858387453365,-23268.434198908115,-29058.65360005541,187500.0
1660692850.3519335,-19102.314901627888,-21077.225634721,-29194.082819710115,-23709.769393178154,-23550.80378661201,-23392.754601568533,-29167.372485086024,187500.0
1660692850.3519428,-19515.86687753998,-21042.31220988181,-29118.735089151276,-23569.28867927655,-23416.15687801324,-23155.133206264163,-28977.717933382744,187500.0
1660692850.3519518,-19338.662247498305,-20891.527341786306,-29154.877859935506,-23664.082427511505,-23514.705719316687,-23255.60429759077,-29007.468105252756,187500.0
1660692850.351961,-18919.3658732612,-20556.988782523727,-29121.014967085717,-23686.83650336701,-23497.427820852736,-23535.35873119339,-29123.00427234224,187500.0
1660692850.35197,-18954.636926011673,-20726.81733689515,-29136.48237424879,-23593.96500515521,-23413.429965189694,-23410.188962243672,-28901.185560367772,187500.0
1660692850.351979,-19075.2022356036,-20833.233992246867,-29185.745619028286,-23612.114621652916,-23430.126718297808,-23368.592365812347,-28771.21016636016,187500.0
1660692850.3519895,-19077.86209319378,-20835.625628903585,-29037.933532945342,-23583.347926538936,-23405.942130797164,-23311.14838256221,-28588.08232403783,187500.0
1660692850.3519988,-19058.259613306476,-20552.719599332762,-28806.078887710442,-23665.87056706793,-23501.6970040437,-23391.324089923393,-28551.537221853403,187500.0
1660692850.352008,-19081.81835196237,-20501.15412487437,-28830.196419977718,-23553.46364420219,-23386.272595676495,-23358.82465348538,-28542.954151982565,187500.0
1660692850.3520172,-19010.248066216478,-20476.075467595514,-29012.31843379956,-23433.077148565906,-23267.450722152083,-23200.59665448626,-28798.233425406626,187500.0
1660692850.3520265,-18951.619440510207,-20748.67734297244,-29000.36025051597,-23376.706049049622,-23202.921235909613,-23101.354909104695,-28663.497109830038,187500.0
1660692850.3520355,-18902.73617538645,-20890.78973421928,-29034.670178254866,-23278.201911235086,-23155.222613241986,-23068.14021684411,-28510.387660311182,187500.0
1660692850.3520446,-18781.232092527403,-20598.183047554856,-28764.45993953466,-23310.455478484095,-23126.679435572558,-23043.776815387824,-28831.02343452256,187500.0
1660692850.3520539,-19000.681519589605,-20733.18758406491,-28866.875632628875,-23178.15550305313,-22943.64100022805,-22758.65796311593,-28720.91874133572,187500.0
1660692850.3520627,-18705.549085801733,-20533.988837479217,-28954.20389821576,-23126.90295301711,-22932.845107656136,-22762.30129746214,-28745.30449453646,187500.0
1660692850.3520722,-18764.3788772081,-20459.80339763205,-28725.45614546015,-23187.051497346343,-22969.68078251848,-22799.449896746864,-28653.05884516941,187500.0
1660692850.3520813,-18849.136692182623,-20456.13771154138,-28763.543518011993,-23183.519921722404,-22957.499081790338,-22771.711381877827,-28609.204722548096,187500.0
1660692850.3520904,-18614.286913190714,-20160.08885623084,-28493.221520569507,-23288.640175895714,-23073.07995236873,-22979.917881479014,-28748.433738760203,187500.0
1660692850.35213,-18605.97206425334,-20299.563741631955,-28523.150506395163,-23205.156410355143,-22996.547579353763,-22934.990875123844,-28647.7614817335,187500.0
1660692850.3521543,-18771.24086275588,-20510.564209290053,-28799.46277135167,-23072.923490157544,-22840.308885611164,-22757.853300315535,-28444.405310679118,187500.0
1660692850.3521764,-18826.807299471773,-20448.605173659944,-28640.29599908543,-23150.081712017265,-22913.242627768832,-22721.59877080903,-28216.372813746075,187500.0
1660692850.352186,-18825.466194804456,-20192.744754880045,-28427.507391870906,-23246.149509686176,-23009.377480671108,-22792.56555945463,-28147.685903034915,187500.0
1660692850.3521955,-18681.722126212375,-20145.493167101522,-28581.019172789955,-23197.44505851806,-22947.06081712971,-22828.0377779052,-28061.430521181886,187500.0
1660692850.3522048,-18331.91732548682,-20329.716244902163,-28566.84816680529,-23107.166362663076,-22872.897729027,-22834.51978379724,-28168.361266656077,187500.0
1660692850.352214,-18323.71423527172,-20340.623896196354,-28440.829031566267,-22949.139529364056,-22715.00500619471,-22680.11393309998,-28342.23548677391,187500.0
1660692850.3522232,-18261.352868241414,-20046.92197405362,-28350.215059544455,-23002.35903291214,-22768.559785909627,-22690.686308227338,-28545.636361317203,187500.0
1660692850.352248,-18282.29645279604,-19908.698786342,-28278.35420112064,-23020.486297665393,-22774.17007376791,-22674.369534774964,-28515.729727236,187500.0
1660692850.352258,-18443.810158230088,-20168.359001679302,-28445.768767090893,-22836.419682075943,-22576.960632438735,-22477.607128334897,-28329.807916856756,187500.0
1660692850.3522696,-18230.440405659727,-20165.09564698883,-28399.590063046227,-22860.112531198567,-22593.120943679925,-22487.821875550973,-28411.77176377437,187500.0
1660692850.3522792,-18113.58548564738,-19849.846643191177,-28160.38169388553,-23014.98776852939,-22740.59775359604,-22606.487286864198,-28437.163345475597,187500.0
1660692850.3522887,-18228.965190525676,-19893.678414068036,-28246.72648271638,-22944.333904306164,-22662.67957242484,-22516.990902065147,-28267.804177737737,187500.0
1660692850.3522985,-18255.76493212759,-20162.18992020964,-28413.850476008713,-22787.491713463274,-22501.70230885772,-22367.03304851449,-28087.55971045014,187500.0
1660692850.3523252,-18279.346022527938,-20193.37060372479,-28435.375205919172,-22679.44338076632,-22388.311909235945,-22190.029584172917,-27976.471540507264,187500.0
1660692850.35235,-18153.662163455745,-20023.743215053466,-28247.888773428058,-22806.17777182791,-22510.17362000628,-22276.39672474822,-28132.66553076095,187500.0
1660692850.352372,-17933.810404993346,-19842.73878845439,-28034.228448179776,-22927.324226775676,-22624.659255106362,-22470.96866023167,-28245.16186060451,187500.0
1660692850.3523958,-18115.775956604,-19908.385861919625,-28146.478908834328,-22848.489624081805,-22546.115225090412,-22417.033900861014,-27968.424912503353,187500.0
1660692850.352418,-17971.629556611726,-19947.076731571764,-28286.847864013656,-22769.811483599125,-22467.77236077456,-22388.758944125053,-27825.284341011567,187500.0
1660692850.3524415,-17865.21290126001,-19987.086354146762,-28237.316398300696,-22819.812335945648,-22528.569105692997,-22451.142662899812,-27744.59454352791,187500.0
1660692850.352464,-18036.42726378766,-20034.807328558843,-28281.125817433098,-22820.572295257127,-22531.050149327537,-22457.468206580666,-27422.84118209376,187500.0
1660692850.3524733,-18017.025949600455,-19919.293513213815,-28219.34559575863,-22729.578343579575,-22440.793805217007,-22358.919365277216,-27837.4213382508,187500.0
1660692850.3524826,-17872.67838390808,-19827.271381291317,-28100.07668734511,-22660.95848810178,-22377.04663003047,-22248.792320345918,-28371.51627201036,187500.0
1660692850.3525045,-17755.80111215128,-19737.7079412589,-27984.764037700184,-22630.046025520092,-22358.24881294356,-22247.339456956324,-28280.075285443698,187500.0
1660692850.3525138,-17720.418300678528,-19667.16583575795,-27905.124772205923,-22647.9944763177,-22370.654031116253,-22272.865149124285,-28189.97540354436,187500.0
1660692850.3525229,-17858.686191879056,-19717.077281126654,-27946.184926770322,-22599.781763527604,-22320.876696214284,-22158.62538321321,-28117.265178831243,187500.0
1660692850.352532,-17972.143646734195,-19795.755421609334,-28066.772588106705,-22526.73626264766,-22259.901137340206,-22125.745967119452,-27902.889597760393,187500.0
1660692850.352541,-17692.053936964745,-19712.651635724502,-27996.72222098377,-22513.36991946339,-22246.177166244648,-22166.71671470603,-27905.884731517403,187500.0
1660692850.35255,-17665.34360234065,-19617.522611322715,-27881.4319230833,-22523.02587306808,-22262.181015274648,-22180.57479626832,-27931.499830663186,187500.0
1660692850.352559,-17661.610861016616,-19615.801526999658,-27958.366627498464,-22519.3154834885,-22261.465759452076,-22148.76826390842,-27884.114132417933,187500.0
1660692850.3525684,-17714.36097793114,-19626.440957360384,-27832.41454749281,-22401.320624508935,-22144.23085978399,-22024.40315775909,-27744.080453405437,187500.0
1660692850.3525794,-17670.663317521015,-19585.06787837361,-27807.626462891873,-22376.57724339691,-22125.589504908265,-22003.191352271006,-27702.729726163117,187500.0
1660692850.3525884,-17665.433009318473,-19565.420694997396,-27875.46400731373,-22341.037969712972,-22090.94430100254,-21959.851319772162,-27497.563063807855,187500.0
1660692850.3525977,-17652.603108001127,-19503.61812157847,-27839.790623163062,-22312.763012977008,-22061.08237041025,-21931.017569424817,-27431.558362431333,187500.0
1660692850.3526063,-17620.684816918947,-19461.8427111915,-27745.712130750675,-22325.615266038807,-22065.731533256952,-21973.374125167626,-27574.967154856582,187500.0
1660692850.831809,-17499.471306737818,-19410.83603034449,-27639.22842016559,-22338.534574333975,-22091.391335891647,-21994.295357977793,-27631.4723648396,187500.0
1660692850.832014,-17490.396498488964,-19420.670797904826,-27716.1407728363,-22286.387954519745,-22030.97457062895,-21918.56764776321,-27643.98934173457,187500.0
1660692850.8320413,-17597.99779629681,-19493.112801684478,-27714.129115835323,-22259.74467512902,-22020.26808503486,-21915.66192098402,-27609.835876206864,187500.0
1660692850.8320525,-17456.578309128083,-19350.82159648199,-27621.972873446095,-22296.60270173582,-22048.90066968211,-21958.934898249496,-27696.538292948997,187500.0
1660692850.8320622,-17465.340192954565,-19324.625351980372,-27598.056506878915,-22223.847773533795,-22003.25840750437,-21901.08858359916,-27686.234138755102,187500.0
1660692850.832072,-17502.22057130582,-19428.158632297353,-27630.444184594657,-22179.166636367638,-21965.908642519553,-21843.33167592665,-27680.37798170781,187500.0
1660692850.8320816,-17495.716213669326,-19390.898274290357,-27614.641501264752,-22112.84901056874,-21894.33835677366,-21793.487285791314,-27595.731925455562,187500.0
1660692850.832091,-17468.156512755933,-19385.712669576726,-27645.755129546542,-22057.193166875026,-21880.48027521137,-21795.87892244803,-27569.803901887408,187500.0
1660692850.8321257,-17363.86327312747,-19354.0178959391,-27644.79400453496,-22056.343800585724,-21883.296595012736,-21802.36092834007,-27563.321895995367,187500.0
1660692850.8321536,-17351.011020065667,-19315.081157097957,-27652.48300462759,-22073.93462347205,-21851.98180103085,-21763.088913332096,-27495.372592851236,187500.0
1660692850.832163,-17376.44730525581,-19175.762733908028,-27530.911866535174,-22050.241774349426,-21808.75352725429,-21718.072499999107,-27427.602103662743,187500.0
1660692850.8321729,-17387.466715272276,-19140.379922435277,-27370.538100068345,-22069.352515858714,-21823.282161150237,-21728.287247215183,-27516.651453572686,187500.0
1660692850.8321824,-17301.85953400845,-19228.691664778195,-27441.929571858596,-22062.84815822222,-21852.697056853423,-21752.963573093843,-27405.22800746298,187500.0
1660692850.832192,-17307.492173611186,-19251.982182500626,-27570.4073989877,-22023.486736236424,-21812.50862032278,-21733.96459030683,-27064.140387074996,187500.0
1660692850.8322015,-17254.630297974385,-19208.0833563904,-27514.036299471416,-21991.30022422078,-21776.835236172108,-21720.598247122558,-27314.36816625216,187500.0
1660692850.8322115,-17295.80221126106,-19227.79759499998,-27498.211264397058,-21878.155693788016,-21658.70626672581,-21587.292443191105,-27454.89358364267,187500.0
1660692850.8322215,-17232.345608752443,-19178.51199847603,-27427.400937962644,-21973.709401334454,-21763.60300345457,-21660.00266790422,-27480.039296154893,187500.0
1660692850.832236,-17139.295296585,-19091.742526500526,-27377.66830654959,-22021.832707146732,-21790.4921520343,-21722.274627956704,-27473.02084839593,187500.0
1660692850.8322456,-17142.938630931214,-19109.467459853586,-27406.703222597032,-21957.72790404891,-21720.330026189094,-21637.919144382377,-27292.06112528576,187500.0
1660692850.8322763,-17159.858901483884,-19105.421794107177,-27353.908402193596,-21890.471504982892,-21671.893795954442,-21575.22250118524,-27341.480832276444,187500.0
1660692850.832286,-17188.178561708755,-19109.489811598043,-27358.73637899594,-21918.96997916341,-21695.631348565978,-21608.079565534543,-27425.881019339686,187500.0
1660692850.8322954,-17161.423523595753,-19071.96123265758,-27362.42441683107,-21922.05451989824,-21707.9248080164,-21621.870591863466,-27283.366296692646,187500.0
1660692850.8323047,-17145.620840265852,-19041.249935775988,-27303.68403240252,-21915.840734939666,-21705.756688804235,-21605.50911492218,-27161.303420222215,187500.0
1660692850.8323143,-17130.466357525154,-19028.420034458642,-27230.705586755943,-21822.499850094304,-21620.820059874066,-21516.772689434612,-27143.26556244678,187500.0
1660692850.8323236,-17037.41604535771,-18945.204489851534,-27139.309303678194,-21725.068596013618,-21524.9310761608,-21427.030435446555,-27292.083477030217,187500.0
1660692850.8323328,-16932.340494673314,-18789.14461006458,-27099.523198547748,-21746.436863712894,-21545.606439781957,-21453.181976459262,-27335.06588161777,187500.0
1660692850.832342,-17025.770786496494,-18887.3581752012,-27225.14000238657,-21726.812032081132,-21506.379128262895,-21417.91092370879,-27223.418918063515,187500.0
1660692850.8323517,-17039.33829538087,-19020.887496577205,-27332.115451349673,-21698.0229852227,-21470.169302245296,-21370.36876325235,-27145.076053747664,187500.0
1660692850.8323612,-17020.78634748296,-18981.347260635765,-27247.827023008707,-21719.838287811075,-21496.700822913746,-21382.639870958315,-27157.123644009072,187500.0
1660692850.8323703,-17045.641487317265,-18980.05085945736,-27230.370310589115,-21723.593380879567,-21495.650290924346,-21381.70109769119,-27136.962370510384,187500.0
1660692850.8323798,-16965.890463100728,-18921.243419795446,-27183.43164723297,-21739.194898509373,-21514.20223882225,-21387.80312392749,-27181.732914654367,187500.0
1660692850.832389,-16880.462095792544,-18813.686825476507,-27124.445393615413,-21655.509967268703,-21433.91477273879,-21363.931460849224,-27155.80489108621,187500.0
1660692850.8323984,-16921.321084656847,-18836.01621818736,-27094.203483367382,-21616.349710983006,-21395.0003856421,-21340.484480915606,-27057.59132594959,187500.0
1660692850.8324077,-16951.250070482503,-18860.334916154734,-27078.333744804117,-21656.04640913563,-21415.072252162965,-21362.389190481805,-27088.45908504237,187500.0
1660692850.8324172,-16930.127671972237,-18827.410796572065,-27086.15685536347,-21643.797653174122,-21401.392984556318,-21348.441701941694,-27148.406463671505,187500.0
1660692850.8324265,-16857.328040281303,-18749.60437412314,-27047.376578733514,-21652.112502111497,-21395.156847853286,-21352.353257221373,-27154.508489907803,187500.0
1660692850.832436,-16749.92790817355,-18682.28091982376,-26985.395191358948,-21673.301955855128,-21346.407693196263,-21296.630358294293,-27077.10439885907,187500.0
1660692850.8324451,-16841.3241912513,-18750.118464245614,-27052.562183447146,-21686.355374617026,-21358.32117299094,-21300.45250659615,-27047.845965367076,187500.0
1660692850.8324547,-16992.26552155799,-18843.884032235626,-27121.09263194712,-21698.045336967152,-21333.55544013446,-21275.910291184224,-27017.559351630134,187500.0
1660692850.832466,-16897.71764251204,-18792.43031649951,-27089.46491354286,-21717.379595920993,-21331.588486622393,-21305.347538631864,-27112.93424522093,187500.0
1660692850.8324752,-16835.445682459555,-18713.66276903901,-27035.35134021656,-21665.791769718144,-21283.934567443677,-21247.970610615088,-27042.950933331365,187500.0
1660692850.8324847,-16813.071586259794,-18674.83778892014,-26985.953984970332,-21651.866632922487,-21229.9104010952,-21208.34096769583,-26983.38353435797,187500.0
1660692850.8324943,-16840.117197050717,-18698.21771362039,-26993.017136218208,-21669.01042091971,-21220.54502016843,-21204.96585428308,-26979.09199942255,187500.0
1660692850.8325038,-16841.055970317837,-18694.216751362892,-26917.42353647036,-21698.224150922793,-21244.10375882432,-21224.30011323692,-27019.705119097845,187500.0
1660692850.832513,-16813.00453102643,-18691.914521683993,-26917.959978337287,-21730.29890421616,-21227.25054350502,-21168.241938143008,-26934.366158767483,187500.0
1660692850.8325224,-16773.039611940338,-18612.990512012304,-26941.04933035962,-21697.933578244876,-21170.76768526646,-21104.047728067366,-26927.839449386534,187500.0
1660692850.8325317,-16771.69850727302,-18587.86715124454,-26877.212748195263,-21742.905288088954,-21155.81436822586,-21042.2675063929,-26898.51396066117,187500.0
1660692850.8325408,-16711.035872821318,-18552.417284538424,-26818.53941900008,-21756.048113828674,-21126.04184461139,-21025.660160262607,-26842.053454167064,187500.0
1660692850.8325503,-16749.100893628703,-18549.53390950369,-26807.721174683713,-21757.97036385183,-21138.737635462003,-21056.594974588752,-26862.08061719902,187500.0
1660692850.83256,-16828.09195853376,-18578.39001159549,-26830.609361005947,-21664.67418249538,-21156.909603704167,-21066.31798342681,-26868.87554751343,187500.0
1660692850.8325691,-16827.823737600298,-18610.509468377768,-26833.090404640487,-21556.40233235387,-21147.030132654923,-21059.83597753477,-26848.960143203753,187500.0
1660692850.8325784,-16864.681764207096,-18643.008904815782,-26832.665721495836,-21457.49586313914,-21142.537432019406,-21065.13334097068,-26835.079709897007,187500.0
1660692850.8325884,-16870.560272998842,-18623.607590628577,-26832.241038351185,-21396.319138564962,-21137.28477207241,-21048.68245705157,-26821.556904501547,187500.0
1660692850.8325975,-16876.796409701874,-18598.752450794276,-26840.444128566283,-21374.168559809754,-21114.061309583343,-21044.256811649422,-26799.965119357723,187500.0
1660692850.832607,-16863.00538337295,-18538.425092509402,-26780.005011559133,-21395.447420531204,-21142.62683899723,-21044.189756416054,-26776.607546401927,187500.0
1660692850.8326163,-16856.14339782517,-18514.57578117559,-26762.794168328546,-21364.266737016053,-21111.89319037118,-21001.96731113998,-26793.036078576577,187500.0
1660692850.8326256,-16849.102598321748,-18530.28905752767,-26777.792188858057,-21350.85569034287,-21102.147829788664,-20988.086877833233,-26765.878709063378,187500.0
1660692850.832635,-16777.66642304259,-18496.00148153323,-26741.157679695807,-21506.915570129822,-21120.386853264197,-20978.609738184183,-26751.797110056534,187500.0
1660692850.8326612,-16710.25356176538,-18435.070626148063,-26702.489161788126,-21465.16251148731,-21105.36648099023,-20948.211365724965,-26734.273342403572,187500.0
1660692850.8326707,-16751.827806452253,-18462.876196250465,-26716.86133347289,-21524.327579060508,-21113.524867716416,-20959.208423996977,-26769.544395154047,187500.0
1660692850.832698,-16727.531460229333,-18418.93266665133,-26655.528146687528,-21610.6500161469,-21170.655926544183,-20984.063563831278,-26805.083668837986,187500.0
1660692850.8327074,-16574.08673454365,-18314.170040389305,-26585.567186542416,-21504.14395381736,-21120.90094338667,-20962.38237170963,-26816.48305851019,187500.0
1660692850.8327167,-16487.987814901808,-18368.97651779372,-26658.791501378,-21398.46490603267,-21081.628928378694,-20925.52434510283,-26760.268421205095,187500.0
1660692850.8327262,-16546.03529525224,-18421.36900679696,-26715.497877061116,-21341.17738499372,-21092.581283161795,-20925.546696847287,-26753.607601357413,187500.0
1660692850.8327515,-16581.909845103008,-18426.487556277225,-26676.51643473106,-21288.136695401277,-21079.863140566726,-20910.32515887322,-26749.897211777832,187500.0
1660692850.8327608,-16569.6610891415,-18434.467129047767,-26710.133458391843,-21247.657686192713,-21057.801968789336,-20909.185219906,-26756.580383369972,187500.0
1660692850.8327699,-16496.146201627995,-18389.428363970324,-26709.61936826937,-21286.437962822674,-21063.50166362544,-20891.61674876413,-26728.975978967665,187500.0
1660692850.8327787,-16421.87135480301,-18357.577128121513,-26680.450341755193,-21343.054931527964,-21055.767960043904,-20862.201853060946,-26696.67770822975,187500.0
1660692850.832788,-16329.46924322477,-18281.80471441802,-26598.441791348672,-21332.46020465615,-20974.698182904503,-20785.53536957924,-26626.9849690181,187500.0
1660692850.8327973,-16369.43416231086,-18273.087534080452,-26576.671192249203,-21358.678800902224,-20946.736150590918,-20758.556814021686,-26630.114213241843,187500.0
1660692850.832806,-16307.050443536096,-18236.050693518006,-26546.9657238681,-21321.776070806514,-20940.276496443334,-20742.307095802676,-26595.26784363602,187500.0
1660692850.8328152,-16299.853181821489,-18244.253783733104,-26547.189241312655,-21212.610150886794,-20927.401891637077,-20736.473290499842,-26546.20576455662,187500.0
1660692850.8328245,-16279.334280411516,-18243.315010465984,-26519.92011307718,-21190.034888986935,-20923.89266775759,-20739.066092856658,-26543.12122382179,187500.0
1660692850.8328333,-16210.937942378278,-18187.525056305534,-26520.43420319965,-21156.641382770704,-20889.068649896224,-20717.183735034912,-26502.284586701942,187500.0
1660692850.8328426,-16233.379093811405,-18142.843919139377,-26473.964926477067,-21117.011739851445,-20863.69941993945,-20735.221592810347,-26504.966796036577,187500.0
1660692850.8328516,-16237.111835135442,-18158.87011991383,-26403.914559354136,-21123.493745743483,-20868.058010108234,-20748.38677029452,-26512.946368807123,187500.0
1660692850.8328607,-16265.45384710477,-18175.678631744224,-26457.13406290222,-21093.31889072882,-20818.057157761712,-20681.890330539984,-26442.359559817265,187500.0
1660692850.8328698,-16219.58806748248,-18179.098448645884,-26497.0542784994,-21022.01682591639,-20731.265334041756,-20593.936216108348,-26351.231497672976,187500.0
1660692850.8328788,-16202.913666118822,-18168.816646196443,-26421.192457818088,-21041.529898825873,-20758.601517510597,-20614.879800662973,-26398.46073370704,187500.0
1660692850.832888,-16158.947784775233,-18125.722482886613,-26380.60168988725,-21031.292799865343,-20732.986418364813,-20585.107277048504,-26359.389884399163,187500.0
1660692850.8328967,-16095.960568900176,-18062.221176889085,-26381.11578000972,-20965.153988022088,-20659.35977212903,-20512.329997102024,-26281.762275905883,187500.0
1660692850.8329077,-16092.004310131588,-18052.09583665083,-26326.532820049862,-20930.933467261013,-20607.16844882589,-20470.48753148169,-26240.657417852573,187500.0
1660692850.8329167,-16061.270661505541,-18015.684844933134,-26239.53983062981,-20849.50606221033,-20562.196738981813,-20438.23396423268,-26204.9840337019,187500.0
1660692850.832926,-16107.47171729466,-18040.33881906734,-26284.73505791844,-20860.860748393625,-20595.590245198044,-20469.61581344793,-26256.281287226833,187500.0
1660692850.832935,-16056.755609125568,-18031.7557491965,-26279.14712180461,-20910.012234450845,-20578.669974645374,-20434.456519419735,-26223.51362985535,187500.0
1660692850.832944,-15973.361250562819,-17967.919167032145,-26198.61378653214,-20805.093145977637,-20511.43592732381,-20380.387649582346,-26143.13675679407,187500.0
1660692850.8329532,-15982.994852423055,-17952.94349824709,-26186.119161381623,-20827.10961426611,-20469.19113030328,-20349.318724789468,-26138.509945691818,187500.0
1660692850.8329625,-15972.198959851143,-17899.58988423227,-26157.50892847883,-20816.78310832776,-20462.083275566492,-20332.93489610373,-26116.247608214333,187500.0
1660692850.8329716,-15931.854061109312,-17836.714427079492,-26072.63935478203,-20772.34784035061,-20473.99675536117,-20318.562724418967,-26079.501340329807,187500.0
1660692850.8329806,-15923.986247061044,-17793.352042836195,-25983.880577550004,-20757.416875054467,-20456.33887724148,-20304.123497500837,-26039.87169741055,187500.0
1660692850.83299,-15986.839352469367,-17815.167345424576,-26026.974740859838,-20663.405437875444,-20424.599400114945,-20303.87762831183,-26020.135107056514,187500.0
1660692850.8329988,-15961.961860890611,-17812.887467490134,-26021.163287301457,-20628.80493745863,-20400.75008878113,-20282.554064101467,-25995.972871300328,187500.0
1660692850.833008,-15881.070897706855,-17749.90025161508,-25942.060463674126,-20588.4600387168,-20364.65202148581,-20252.289802108982,-25954.443330102367,187500.0
1660692850.833017,-15861.0437346749,-17678.53113156928,-25976.973888513316,-20453.880185351394,-20313.6453406388,-20212.056662089428,-25905.291844045147,187500.0
1660692850.8330264,-15867.436333589118,-17672.83143673318,-25994.452952677366,-20370.55288202201,-20254.033238176497,-20166.548510378423,-25848.60782010649,187500.0
1660692850.8330352,-15834.668676217638,-17651.552576011727,-25983.85822580555,-20348.514061989077,-20195.628129914778,-20122.604980779288,-25803.21142711776,187500.0
1660692850.8330443,-15796.290730987876,-17568.448790126895,-25834.861497266473,-20284.29750016898,-20172.717591848086,-20095.31350079936,-25773.14833082537,187500.0
1660692850.8330536,-15828.030208114411,-17548.153406161477,-25831.06170070907,-20309.957302803672,-20167.442580156636,-20066.25623300746,-25742.90642057734,187500.0
1660692850.833063,-15799.531733933894,-17476.44900994885,-25854.68749459833,-20271.825226762918,-20131.612733794776,-20042.004590273453,-25688.926957717773,187500.0
1660692850.8330717,-15788.914655317623,-17470.436390690375,-25772.09779883597,-20284.118686213336,-20153.51744336098,-20067.97731733052,-25722.18635346727,187500.0
1660692850.833081,-15758.136303202666,-17524.79583320568,-25748.874336346908,-20265.20911040415,-20116.41354756517,-20028.660598833634,-25743.554621166542,187500.0
1660692850.83309,-15704.49211650993,-17463.75321909824,-25727.014330269616,-20222.271409305504,-20095.268797310448,-19995.311796106314,-25717.22426619819,187500.0
1660692850.833099,-15686.588369201228,-17446.184747956366,-25716.888990031362,-20247.260659606538,-20076.40392499017,-19965.941603892043,-25676.655850011808,187500.0
1660692850.83311,-15695.506715238897,-17433.77952978367,-25705.93663524826,-20237.090615879373,-20011.896790492152,-19892.60553033418,-25603.811514831963,187500.0
1660692850.8331192,-15667.343517225208,-17368.892415629914,-25657.27688756906,-20163.37456266577,-19974.994060396442,-19827.651360947057,-25558.705694521155,187500.0
1660692850.833128,-15652.680772862528,-17329.061607010557,-25622.63168366333,-20171.711763347597,-19999.53627580837,-19828.701892936457,-25598.469447907144,187500.0
1660692850.8331373,-15580.529341760797,-17262.52046376711,-25556.895203220276,-20169.074257501874,-19948.462539727992,-19765.222938683386,-25535.415176798724,187500.0
1660692850.8331463,-15625.679865560516,-17310.353196901466,-25594.78141007202,-20149.114149703284,-19913.929094544543,-19761.221976425884,-25497.171342035694,187500.0
1660692850.8331556,-15581.624577239107,-17233.12791980838,-25491.09166754385,-20161.854644042807,-19946.89791761612,-19784.132514492576,-25530.00605464054,187500.0
1660692850.8331645,-15518.97263753088,-17152.996915936103,-25389.055954105374,-20096.20757057757,-19948.37313275017,-19702.12396408605,-25461.967344518584,187500.0
1660692850.8331735,-15514.59169561764,-17152.035790924525,-25452.020818235975,-20078.6390994357,-19833.395759272073,-19613.432242087394,-25432.686559282134,187500.0
1660692850.8331828,-15456.499511778298,-17117.904677141272,-25386.30668953737,-20090.88785539721,-19821.325817266206,-19584.39732603995,-25417.5991317748,187500.0
1660692850.833192,-15432.449034744388,-17064.081676492893,-25336.663465102134,-20028.928819767098,-19782.657299358525,-19562.693782173847,-25303.62758679719,187500.0
1660692850.8332012,-15383.163438220436,-17012.203277612123,-25381.143436568196,-20046.67610486461,-19789.63104362858,-19599.618864014014,-25329.041520242874,187500.0
1660692850.8332107,-15342.460911567321,-17000.736832706552,-25318.513848604423,-20021.15041269665,-19736.23272612485,-19523.600581121515,-25328.90740977614,187500.0
1660692850.8332195,-15346.193652891357,-17033.146862166748,-25342.87725006071,-19984.404144812124,-19696.513676227773,-19449.482196507717,-25322.134831206185,187500.0
1660692850.8332288,-15385.62213011052,-17068.440266661677,-25345.760625095445,-19959.191377066538,-19666.539986913205,-19388.104306233443,-25227.139917271128,187500.0
1660692850.833238,-15301.043129091637,-16978.094515573324,-25266.72485670148,-19924.434414438536,-19613.029910687197,-19407.147992509366,-25267.57422299078,187500.0
1660692850.8332467,-15257.54663438161,-16967.320974745868,-25241.04270232233,-19875.327631870226,-19565.30893627512,-19448.94575464079,-25155.54727978078,187500.0
1660692850.8332927,-15228.77993926763,-16957.50855892999,-25210.241998462916,-19898.41698389256,-19601.764631481725,-19408.734966365693,-25140.146927851074,187500.0
1660692850.8333187,-15197.86747668594,-16937.414340664665,-25189.723097052945,-19893.298434412292,-19569.511064232716,-19381.845817785957,-25212.9018560531,187500.0
1660692851.312515,-15216.307665861568,-16969.869073613772,-25268.222423579984,-19839.6318959751,-19513.207019949798,-19318.858601910903,-25176.08853293521,187500.0
1660692851.3126884,-15122.698560082741,-16926.774910303942,-25197.27798667884,-19846.538585011793,-19544.186537764854,-19312.44365125223,-25156.106073392162,187500.0
1660692851.3126996,-14993.125497475326,-16813.339807193257,-24981.36013524057,-19873.15951265806,-19591.080497632087,-19366.043134456057,-25192.405306387584,187500.0
1660692851.3127155,-15020.864012344362,-16828.941324823063,-25080.356011433127,-19730.130699888552,-19467.117722882955,-19141.609268380318,-25139.990465639887,187500.0
1660692851.3127253,-15024.373236223846,-16789.37873713717,-25087.463866169914,-19838.02257037432,-19510.211886192785,-18959.84488246976,-25120.54444796377,187500.0
