Time,CH1,CH2,CH3,CH4,CH5,CH6,CH7,CH8
1660693639.6044817,0.0,0.0,0.0,0.0,0.0,0.0,0.0,0.0
1660693640.0877664,10470.764097066414,7411.234964279529,308.45407348323744,6170.824905732264,6344.408553172178,5420.029809478499,-2501.3390185045027,187500.0
1660693640.0879352,10428.63105876816,7411.257316023984,309.437550239271,6177.239856390936,6348.431867174133,5417.816986777424,-2502.7024749162765,187500.0
1660693640.0879457,10470.965262766513,7403.613019420269,300.78742513506717,6167.270978363869,6338.910024036172,5418.487539111083,-2502.3895504939023,187500.0
1660693640.0879562,10451.228672412477,7406.809318877378,302.66497166931293,6194.361292643702,6346.420210173155,5419.761588545035,-2500.1096725594607,187500.0
1660693640.0879657,10451.966279979502,7406.675208410646,302.307343758028,6195.814156033297,6382.78649840194,5417.0346757214875,-2500.646114426388,187500.0
1660693640.0879765,10459.40941088312,7410.94439160161,305.86127112642185,6152.496475278911,6337.300698435391,5419.31455365593,-2499.7296929037207,187500.0
1660693640.0879858,10476.374384924697,7413.1348625582295,306.86709962691066,6173.641225533632,6328.292945419901,5418.755760044546,-2500.042617326095,187500.0
1660693640.0879953,10437.772922250382,7414.5430224589145,307.9623351052207,6209.672237595587,6348.230701474035,5417.816986777424,-2501.5401842046003,187500.0
1660693640.0880046,10376.126811042644,7410.072673567853,306.308306015528,6185.353539628213,6338.641803102709,5419.605126333849,-2497.8297946250195,187500.0
1660693640.088014,10471.814629055814,7406.5634496883695,303.1343583028744,6185.5770570727655,6334.618489100753,5419.493367611572,-2496.980428335718,187500.0
1660693640.0880237,10456.727201548481,7409.580935189836,306.4200647378045,6172.41187958859,6347.49309390701,5420.83447227889,-2496.9357248468073,187500.0
1660693640.088049,10474.876818046192,7411.6149439352685,309.59401245045814,6183.900676238618,6339.379410669734,5420.387437389784,-2497.561573691556,187500.0
1660693640.0880585,10464.751477807937,7413.7830631474335,312.27622178509495,6183.140716927138,6339.982907770027,5422.242632179575,-2495.751082390676,187500.0
1660693640.0880675,10448.993497966945,7411.883164868733,311.89624212935473,6169.327338853757,6336.384276912722,5420.342733900873,-2495.30404750157,187500.0
1660693640.0880768,10475.83794305777,7407.837499122322,308.2976112720503,6183.543048327333,6340.094666492304,5418.68870481118,-2495.9969515796843,187500.0
1660693640.088086,10482.297597205354,7403.8588886092775,304.2295937811844,6175.809344745797,6337.881843791229,5418.398132133261,-2495.5499166905784,187500.0
1660693640.0880947,10466.69607957555,7400.953161830087,301.9497158467431,6164.812286473785,6346.241396217513,5418.68870481118,-2494.2311637677153,187500.0
1660693640.088104,10431.02269542488,7397.488641439515,298.1275675448856,6171.7189755104755,6344.006221771982,5418.219318177619,-2492.8677073559415,187500.0
1660693640.088113,10437.907032717114,7390.783118102922,289.5221459295924,6170.6013882877105,6344.475608405543,5417.54876584396,-2490.9231055883297,187500.0
1660693640.0881224,10440.455131585019,7381.015405775954,279.8214888359891,6179.050347691817,6351.069373019859,5416.922916999211,-2488.7773381206202,187500.0
1660693640.0881314,10421.746721475927,7375.986263273509,275.59700913393607,6178.200981402515,6345.101457250293,5416.922916999211,-2485.8269078525195,187500.0
1660693640.0881464,10413.431872538553,7383.3176354548505,283.2189539931958,6216.981258032472,6358.534855667932,5416.721751299114,-2486.1174805304386,187500.0
1660693640.0881553,10408.000398635913,7385.441051178104,283.9789133046762,6197.937571756551,6340.16172172567,5416.006495476544,-2486.2515909971703,187500.0
1660693640.0881643,10436.275355371876,7391.6548361366795,289.7680151186008,6169.5061528094,6334.886710034217,5414.352466386851,-2488.2185445092377,187500.0
1660693640.0881736,10438.64464028414,7397.13101352823,297.4793669556817,6178.491554080433,6337.345401924301,5414.7995012759575,-2487.1903642642933,187500.0
1660693640.0881832,10416.605820251205,7407.636333422224,309.63871593936875,6176.323434868269,6335.9595937680715,5415.380646631796,-2484.8434310964863,187500.0
1660693640.088192,10450.580471823272,7413.403083491694,314.6678584418128,6181.866667493185,6340.474646148044,5414.955963487144,-2483.234105495704,187500.0
1660693640.0882013,10470.965262766513,7410.765577645967,310.7115996732235,6217.22712722148,6353.8633410767725,5414.352466386851,-2482.429442695313,187500.0
1660693640.0882103,10469.937082521568,7417.8287288938445,315.8525008979441,6229.5205866719,6347.269576462457,5414.061893708932,-2482.5635531620446,187500.0
1660693640.0882196,10464.818533041303,7421.9414498736205,320.0546288555418,6198.786938045852,6341.391067670712,5413.905431497745,-2481.915352572841,187500.0
1660693640.0882287,10486.633835629682,7423.550775474403,324.83790216897756,6172.568341799777,6341.68164034863,5414.732446042592,-2481.401262450369,187500.0
1660693640.0882375,10455.78842828136,7418.7675021609675,321.2616230561284,6188.214562918492,6344.900291550194,5414.7995012759575,-2480.104861271961,187500.0
1660693640.0882468,10500.804841614348,7417.314638771372,317.84180615446644,6171.406051088101,6342.441599660111,5414.665390809226,-2479.233143238204,187500.0
1660693640.088256,10477.246102958454,7416.331162015339,317.0371433540754,6144.494550763911,6331.466893132555,5415.604164076348,-2477.333244959503,187500.0
1660693640.0882647,10440.030448440368,7415.794720148411,316.3218875315055,6164.477010306956,6337.278346690935,5415.35829488734,-2475.6345123808997,187500.0
1660693640.088274,10389.29198852682,7416.286458526428,317.26066079862846,6201.580906102766,6348.767143340962,5415.246536165063,-2475.008663536151,187500.0
1660693640.0882833,10465.399678397142,7417.605211449291,319.85346315544405,6205.537164871355,6349.638861374719,5415.179480931697,-2474.271055969126,187500.0
1660693640.0882924,10489.673672875604,7407.70338865559,312.72325667420114,6211.728598085475,6353.930396310138,5415.514757098527,-2473.533448402101,187500.0
1660693640.0883014,10452.480370101974,7402.897763597699,308.565832205514,6226.95013605954,6342.329840937834,5417.012323977033,-2470.4042041783578,187500.0
1660693640.0883105,10487.483201918985,7404.574144431847,310.7115996732235,6151.960033411984,6328.315297164357,5417.124082699309,-2469.018396022129,187500.0
1660693640.0883195,10451.988631723956,7401.489603697015,304.83309088147774,6144.181626341538,6325.431922129622,5415.470053609616,-2468.683119855299,187500.0
1660693640.0883284,10464.59501559675,7401.757824630478,304.2966490145503,6157.7491352259085,6335.244337945502,5416.028847220999,-2467.699643099266,187500.0
1660693640.088339,10438.39877109513,7403.32244674235,309.23638453917323,6154.7540014688975,6333.880881533728,5415.850033265357,-2466.2244279652155,187500.0
1660693640.0883484,10483.1246117502,7403.456557209081,310.66689618431286,6162.465353305978,6333.63501234472,5415.134777442787,-2465.5538756315564,187500.0
1660693640.0883577,10448.054724699823,7399.902629840688,308.3423147609609,6174.8258679897635,6334.037343744915,5416.565289087926,-2463.117535485928,187500.0
1660693640.0883667,10420.293858086332,7402.003693819487,309.63871593936875,6181.553743070811,6343.670945605153,5417.0346757214875,-2462.558741874545,187500.0
1660693640.088376,10449.708753789515,7401.914286841666,309.70577117273467,6193.13194669866,6362.804038858895,5416.967620488122,-2461.3517476739585,187500.0
1660693640.0883849,10450.312250889809,7406.742263644012,312.4326839962821,6157.5703212702665,6333.344439666801,5417.88404201079,-2456.590826104978,187500.0
1660693640.088394,10456.21311142601,7409.200955534096,312.5891462074693,6167.516847552878,6334.864358289762,5415.470053609616,-2455.5402941155785,187500.0
1660693640.088403,10423.91484068809,7411.749054402001,316.07601834249715,6176.859876735196,6340.9440327816055,5414.0395419644765,-2454.065078981528,187500.0
1660693640.088412,10429.905108202114,7405.7364351435235,311.8291868959888,6186.493478595434,6336.585442612821,5413.950134986656,-2452.7686778031207,187500.0
1660693640.0884213,10441.907994974614,7404.305923498384,308.8787566278883,6210.387493418157,6327.689448319608,5414.575983831404,-2452.075773725006,187500.0
1660693640.0884304,10458.78356203837,7400.7519961299895,307.0682653270084,6159.961957926984,6331.332782665823,5414.128948942298,-2449.080639967995,187500.0
1660693640.0884392,10454.916710247602,7396.326350727839,303.06730306950845,6185.465298350489,6342.978041527038,5412.765492530524,-2445.81728527752,187500.0
1660693640.0884483,10492.489992676974,7405.557621187881,310.93511711777654,6235.197929763548,6356.880826578239,5413.167823930719,-2443.3138898985258,187500.0
1660693640.0884576,10481.69410010506,7406.429339221638,312.9691258632095,6174.17766740056,6334.931413523128,5413.279582652996,-2442.1963026757603,187500.0
1660693640.0884666,10407.508660257896,7406.317580499361,315.04783809755304,6161.280710849847,6323.10734070627,5411.826719263401,-2441.4586951087354,187500.0
1660693640.0884757,10421.031465653357,7402.294266497406,313.79614040805586,6172.523638310867,6331.243375688002,5409.703303540147,-2440.564625330523,187500.0
1660693640.088485,10449.239367155955,7397.779214117434,312.9020706298436,6192.662560065099,6350.130599752736,5410.530318084993,-2438.821189263009,187500.0
1660693640.088494,10465.64554758615,7394.381748960227,308.5434804610587,6160.543103282822,6329.924622765139,5410.9773529741,-2436.8765874953974,187500.0
1660693640.0885031,10462.35984115122,7403.590667675814,316.54540497605865,6159.671385249065,6319.352247637778,5410.329152384896,-2434.3508403719475,187500.0
1660693640.0885122,10470.674690088594,7400.081443796331,315.47252124220387,6175.339958112235,6326.236584930013,5411.469091352116,-2430.573395559001,187500.0
1660693640.0885212,10445.283108387364,7391.36426345876,309.8398816394665,6179.206809903003,6327.4435791306,5414.575983831404,-2428.494683324657,187500.0
1660693640.0885303,10438.376419350674,7392.347740214795,310.66689618431286,6199.390435146146,6339.155893225181,5412.4525681081495,-2430.685154281277,187500.0
1660693640.0885413,10448.032372955367,7386.7821558454225,305.9953815931537,6210.61101086271,6338.373582169245,5411.223222163108,-2433.568529316012,187500.0
1660693640.0885506,10443.360858364209,7392.683016381624,310.8010066510447,6175.4740685789675,6330.684582076619,5412.184347174686,-2433.9932124606626,187500.0
1660693640.0885596,10443.49496883094,7392.906533826177,312.0527043405419,6147.422629287556,6351.002317786493,5412.407864619239,-2430.0369536920734,187500.0
1660693640.0885687,10455.430800370073,7394.9405425716095,314.6008032084469,6147.914367665573,6322.190919183603,5412.027884963499,-2425.700715267744,187500.0
1660693640.088578,10474.0721552458,7393.8229553488445,313.9749543636983,6215.617801620699,6334.462026889566,5410.127986684798,-2425.723067012199,187500.0
1660693640.088587,10420.718541230983,7384.189353488608,309.1022740724414,6224.916127314106,6333.657364089176,5408.652771550747,-2426.1924536457605,187500.0
1660693640.088596,10399.909067143091,7376.254484206973,302.32969550248333,6147.0650013762715,6318.9946197264935,5407.423425605706,-2423.0632094220173,187500.0
1660693640.0886052,10451.295727645842,7376.142725484697,303.08965481396376,6168.701490009009,6321.743884294497,5406.059969193932,-2421.1856628877717,187500.0
1660693640.0886147,10453.441495113551,7376.36624292925,301.8379571244666,6149.791914199819,6317.25118365898,5407.848108750357,-2419.8669099649087,187500.0
1660693640.088624,10441.371553107687,7375.807449317867,299.93805884576545,6134.123341336649,6319.7545790379745,5408.384550617284,-2419.889261709364,187500.0
1660693640.0886333,10443.651431042128,7380.9707022870425,302.1508815468409,6143.064039118772,6320.849814516284,5408.161033172731,-2419.6210407759,187500.0
1660693640.0886424,10450.133436934166,7378.780231330423,303.5813931919805,6152.340013067725,6325.454273874077,5409.211565162131,-2418.950488442241,187500.0
1660693640.0886514,10443.49496883094,7376.790926073901,304.4531112257375,6168.36621384218,6335.646669345698,5410.709132040636,-2416.916479696808,187500.0
1660693640.0886605,10413.118948116178,7374.198123717085,302.8214338805001,6144.516902508367,6326.6836198191195,5411.513794841027,-2413.563718028512,187500.0
1660693640.0886695,10425.010076166402,7372.03000450492,302.1508815468409,6170.355519098702,6325.7448465519965,5410.038579706977,-2412.021447661096,187500.0
1660693640.0886788,10455.453152114529,7376.254484206973,307.2470792826509,6177.5304290688555,6329.522291364943,5410.195041918164,-2408.400465059336,187500.0
1660693640.088688,10429.569832035284,7381.663606365158,313.10323632994135,6185.241780905936,6339.647631603198,5410.664428551725,-2405.04770339104,187500.0
1660693640.0886967,10415.667046984083,7381.9094755541655,314.6008032084469,6185.979388472962,6324.426093629133,5408.652771550747,-2403.907764423819,187500.0
1660693640.0887058,10437.92938446157,7375.360414428761,310.0410473395643,6163.001795172906,6323.777893039929,5406.529355827493,-2401.896107422842,187500.0
1660693640.088715,10422.193756365032,7376.165077229152,313.952602619243,6162.331242839246,6327.085951219315,5405.076492437898,-2399.6162294884,187500.0
1660693640.0887244,10423.19958486552,7375.785097573412,315.2490037976508,6151.155370611593,6321.8109395278625,5404.070663937409,-2396.4869852646575,187500.0
1660693640.088735,10401.25017181041,7375.941559784599,317.0594950985307,6154.351670068702,6309.293962632891,5404.45064359315,-2393.178927085272,187500.0
1660693640.088744,10395.259904296387,7375.785097573412,317.1265503318966,6156.765658469875,6315.373637124734,5402.394283103262,-2391.457842762213,187500.0
1660693640.088754,10461.286957417364,7370.666548093146,313.72908517468994,6146.573262998255,6318.368770881745,5400.784957502479,-2389.0885578499506,187500.0
1660693640.0887628,10455.319041647797,7371.538266126903,314.15376831934077,6174.200019145014,6326.549509352388,5400.583791802382,-2384.685264192255,187500.0
1660693640.088772,10447.361820621709,7371.940597527099,315.9642596202206,6187.544010584833,6317.25118365898,5398.750948757047,-2382.271275791082,187500.0
1660693640.088781,10433.324925103776,7379.048452263886,325.2849370580837,6145.746248453409,6309.852756244273,5399.68972202417,-2382.1818688132607,187500.0
1660693640.0887904,10451.854521257224,7371.560617871359,319.58524222198037,6171.830734232752,6318.748750537486,5399.980294702089,-2379.209086800705,187500.0
1660693640.0888183,10449.68640204506,7370.666548093146,321.1722160783072,6199.613952590698,6345.25791946148,5401.231992391586,-2374.4481652317245,187500.0
1660693640.0888276,10442.891471730647,7369.79483005939,322.4239137678044,6207.437063150056,6334.216157700558,5399.287390623974,-2372.7717843975765,187500.0
1660693640.088853,10426.82056746728,7368.341966669795,322.71448644572337,6220.5575371453215,6315.977134225027,5393.855916721334,-2372.3918047418365,187500.0
1660693640.088862,10441.528015318872,7369.258388192462,322.8038934235446,6177.329263368758,6303.191936396592,5389.54203004146,-2370.916589607786,187500.0
1660693640.088871,10448.099428188734,7370.264216692951,324.83790216897756,6114.945544593996,6292.194878124581,5392.000721931544,-2365.306301749504,187500.0
1660693640.08888,10435.716561760493,7371.582969615814,328.2130155817289,6115.280820760825,6290.965532179539,5392.44775682065,-2361.1041737919063,187500.0
1660693640.0888891,10431.82735822527,7373.304053938873,332.0575156280417,6134.056286103283,6296.776985737919,5391.9113149537225,-2357.4161359567806,187500.0
1660693640.0888984,10395.997511863412,7374.55575162837,334.00211739565344,6136.023239615351,6297.894572960684,5392.626570776292,-2351.850551587409,187500.0
1660693640.0889075,10450.759285778915,7370.174809715129,331.7669429501227,6152.764696212375,6306.9023259761725,5391.039596919965,-2347.402554440803,187500.0
1660693640.0889163,10421.366741820186,7367.157324213663,329.84469292696633,6153.994042157417,6305.360055608757,5390.704320753136,-2341.993432282619,187500.0
1660693640.0889256,10442.153864163622,7363.692803823091,329.1517888488518,6164.275844606858,6301.8508317292735,5389.743195741558,-2339.7135543481772,187500.0
1660693640.0889344,10459.230596927477,7361.859960777755,328.90591965984345,6158.173818370559,6304.577744552821,5388.849125963346,-2335.4220194127583,187500.0
1660693640.0889435,10449.798160767337,7359.490675865492,327.1848353367848,6141.342954795713,6310.635067300209,5387.105689895831,-2330.370525165859,187500.0
1660693640.0889528,10424.004247665913,7363.64810033418,331.3199080610166,6168.500324308911,6315.775968524929,5386.010454417522,-2327.241280942116,187500.0
1660693640.0889635,10361.598177146696,7365.995033501988,332.3480883059607,6170.377870843157,6303.706026519064,5382.545934026949,-2325.274327430049,187500.0
1660693640.0889726,10431.223861124976,7364.631577090214,331.7222394612121,6128.378943011635,6290.630256012709,5378.075585135888,-2323.396780895803,187500.0
1660693640.0889816,10474.586245368273,7357.233149675507,329.19649233776244,6138.481931505434,6294.050072914371,5375.9968729015445,-2320.401647138792,187500.0
1660693640.0889907,10454.000288724934,7360.652966577169,333.73389646218976,6143.712239707976,6296.553468293366,5376.689776979659,-2318.434693626725,187500.0
1660693640.0889997,10405.519355001374,7360.02711773242,334.7620767071339,6144.494550763911,6293.603038025265,5375.348672312341,-2318.0323622265296,187500.0
1660693640.0890088,10412.11311961569,7356.808466530856,332.7727714506116,6146.483856020433,6296.955799693561,5372.755869955525,-2317.6747343152447,187500.0
1660693640.089018,10424.674799999571,7354.9085682521545,332.66101272833504,6163.225312617459,6299.414491583645,5372.532352510972,-2314.1878621802166,187500.0
1660693640.0890267,10438.130550161666,7350.326460638817,329.7776376936004,6181.620798304177,6290.67495950162,5371.861800177312,-2310.432769111725,187500.0
1660693640.089036,10425.278297099865,7345.8337600033,326.5589864920362,6144.069867619261,6300.017988683938,5370.766564699003,-2308.0634841994624,187500.0
1660693640.0890453,10405.809927679293,7346.526664081414,329.59882373795796,6134.905652392585,6291.658436257653,5368.576093742382,-2306.767083021055,187500.0
1660693640.089054,10428.496948301428,7347.26427164844,333.8680069289216,6134.257451803381,6287.925694933617,5366.720898952592,-2304.7330742756217,187500.0
1660693640.0890632,10421.702017987016,7343.017440201931,333.95741390674283,6147.847312432207,6283.209476853547,5366.072698363388,-2301.916754474253,187500.0
1660693640.0890725,10418.68453248555,7337.921242466122,332.3033848170501,6168.4332690755455,6300.509727061954,5364.195151829142,-2300.8438707403984,187500.0
1660693640.0890813,10410.235573081443,7338.904719222155,333.5774342510026,6143.578129241244,6284.505878031955,5362.496419250539,-2298.78751025051,187500.0
1660693640.568076,10393.762337417882,7333.942631953077,330.6717074718127,6094.851326328675,6259.270758541913,5360.10478259382,-2295.6135625378565,187500.0
1660693640.568302,10388.777898404349,7326.074817904809,324.4132190243267,6124.02035284285,6273.106488359748,5356.77437266998,-2291.210268880161,187500.0
1660693640.5683324,10406.949866646513,7325.985410926987,325.2178818247178,6129.474178489945,6275.565180249832,5354.896826135734,-2288.3939490787925,187500.0
1660693640.5683446,10400.780785176848,7330.701629007057,327.6989254592568,6114.766730638353,6272.100659859259,5352.304023778918,-2287.857507211865,187500.0
1660693640.5683556,10391.638921694628,7334.344963353273,330.0905621159747,6115.325524249736,6271.430107525601,5348.973613855078,-2286.9410856891973,187500.0
1660693640.568366,10424.853613955214,7335.082570920297,336.9748994082093,6118.11949230665,6275.4981250164665,5348.817151643891,-2285.331760088415,187500.0
1660693640.5683773,10419.422140052575,7331.103960407253,336.28199533009473,6120.7122946634645,6278.515610517933,5348.638337688249,-2282.02370190903,187500.0
1660693640.5683887,10394.298779284809,7328.980544683999,335.1420563628741,6120.131149307626,6268.949063891061,5346.559625453905,-2278.3356640739044,187500.0
1660693640.5684185,10391.907142628092,7323.347905081261,329.9788033936982,6138.191358827515,6272.659453470642,5345.263224275497,-2275.83226869491,187500.0
1660693640.5684292,10423.043122654333,7314.027227643398,325.2178818247178,6156.251568347403,6277.599188995265,5343.899767863723,-2272.7700797045327,187500.0
1660693640.5684395,10392.622398450661,7309.981561896988,326.80485568104456,6150.306004322291,6274.112316860237,5341.709296907103,-2270.1549256032617,187500.0
1660693640.5684507,10407.687474213539,7319.771625968412,334.06917262901936,6112.911535848562,6273.933502904595,5338.62475617227,-2268.9479314026753,187500.0
1660693640.568462,10395.729290929949,7321.06802714682,337.82426569751095,6118.052437073283,6264.836342911285,5335.987250326544,-2266.3327773014043,187500.0
1660693640.5684884,10418.908049930102,7318.050541645353,335.29851857406123,6121.896937119596,6263.651700455153,5334.333221236851,-2262.801201677466,187500.0
1660693640.5685165,10385.536895458328,7310.7638729529235,334.02446914010875,6132.670477947054,6269.552560991355,5333.662668903193,-2258.7778876755106,187500.0
1660693640.5685296,10397.763299675382,7304.170108338608,329.4870650156814,6120.153501052082,6268.077345857304,5331.583956668849,-2258.219094064128,187500.0
1660693640.5685554,10402.390110777631,7306.092358361764,330.3587830494384,6104.999018311384,6259.695441686564,5326.979497311056,-2257.4591347526475,187500.0
1660693640.5685828,10406.033445123845,7306.360579295228,330.24702432716185,6088.570486136733,6264.232845810991,5324.096122276321,-2254.6428149512785,187500.0
1660693640.5686066,10389.783726904838,7304.840660672267,332.99628889516464,6104.239058999903,6257.169694563115,5322.86677633128,-2250.1948178046728,187500.0
1660693640.568617,10391.303645527798,7292.837773899767,325.9554893917429,6105.803681111775,6250.061839826327,5321.413912941684,-2247.1326288142955,187500.0
1660693640.5686393,10368.929549328035,7287.942741864055,323.38503877938257,6091.610323382655,6245.435028724079,5319.357552451796,-2245.858579380343,187500.0
1660693640.5686488,10407.374549791164,7292.502497732938,327.6542219703462,6085.77651807982,6242.842226367263,5318.284668717942,-2242.952852601153,187500.0
1660693640.568658,10412.448395782518,7292.34603552175,331.3199080610166,6099.120509519638,6245.6808979130865,5317.837633828835,-2239.5553874439465,187500.0
1660693640.5686677,10391.571866461261,7288.099204075242,331.61048073893556,6099.701654875476,6250.531226459888,5315.4236454276615,-2238.5495589434577,187500.0
1660693640.568677,10335.983078000912,7281.192515038552,326.42487602530434,6091.0068262823615,6251.201778793547,5312.964953537578,-2236.6720124092117,187500.0
1660693640.568699,10444.321983375787,7276.185724280564,321.9098236453323,6117.828919628731,6260.388345764679,5309.1428052357205,-2235.867349608821,187500.0
1660693640.568708,10420.24915459742,7277.705642903525,321.99923062315355,6150.328356066747,6261.95296787655,5306.214726712075,-2232.7157536406226,187500.0
1660693640.5687172,10337.52534836833,7281.840715627756,329.9788033936982,6088.123451247627,6234.415618707611,5305.2088982115865,-2228.826550105399,187500.0
1660693640.5687263,10371.879979596137,7275.559875435815,329.1070853599412,6068.520971360323,6231.733409372975,5300.470328387061,-2227.083114037885,187500.0
1660693640.5687385,10345.013182760857,7264.071078785787,323.0721143570083,6067.358680648646,6229.5205866719,5296.938752763123,-2225.742009370567,187500.0
1660693640.568748,10374.741002886416,7267.960282321011,327.07307661450824,6071.426698139513,6230.012325049916,5293.898915517201,-2225.1608640147288,187500.0
1660693640.5687568,10383.234665779431,7272.3188724897955,331.0516871275529,6063.380070135602,6232.247499495447,5291.753148049492,-2223.573890158402,187500.0
1660693640.568766,10376.372680231652,7264.428706697072,329.0400301265753,6064.4753056139125,6225.743141858953,5289.272104414953,-2222.188082002173,187500.0
1660693640.5687752,10341.191034459,7246.301441943818,315.04783809755304,6071.314939417236,6226.32428721479,5286.656950313682,-2221.0034395460416,187500.0
1660693640.568784,10335.468987878441,7233.896223771122,307.82822463848885,6071.761974306342,6227.084246526271,5283.527706089939,-2219.930555812187,187500.0
1660693640.5688152,10355.652613121583,7241.093485485731,316.2771840425949,6076.7464133198755,6226.726618614986,5280.577275821838,-2217.382456944282,187500.0
1660693640.568826,10354.870302065649,7243.172197720075,322.1556928343407,6070.420869639024,6226.793673848352,5277.336272875818,-2215.080227265385,187500.0
1660693640.5688353,10353.52919739833,7245.295613443329,326.9613178922317,6072.276064428815,6227.620688393198,5273.447069340596,-2213.828529575888,187500.0
1660693640.5688446,10359.586520145718,7244.110970987198,324.05559111304177,6082.937846533996,6229.051200038338,5269.155534405177,-2213.2920877089605,187500.0
1660693640.5688665,10386.453316980997,7242.3228314307735,324.6590882133351,6055.3781456206025,6220.244612722947,5266.942711704101,-2210.833395818877,187500.0
1660693640.5688753,10331.266859920843,7228.956488246499,317.93121313228767,6050.728982773899,6215.349580687235,5265.534551803416,-2209.380532429282,187500.0
1660693640.5688844,10319.71100803745,7217.534746829838,311.5162624736145,6065.279968414303,6217.718865599498,5262.070031412844,-2209.0005527735416,187500.0
1660693640.5688934,10348.410647918065,7216.2606973958855,311.96329736272065,6084.837744812697,6215.32722894278,5257.532627288417,-2207.8159103174103,187500.0
1660693640.5689027,10342.085104237212,7222.876813754656,317.7523991766452,6067.448087626468,6215.304877198324,5254.8504179537795,-2204.0384655044636,187500.0
1660693640.568912,10322.572031327729,7219.121720686165,317.28301254308377,6049.924319973507,6221.5186621569,5253.017574908445,-2201.6244771032902,187500.0
1660693640.568921,10329.165795942044,7205.643618779614,306.53182346008106,6039.731924501887,6205.447757893534,5249.0389643954,-2199.5010613800364,187500.0
1660693640.56893,10328.383484886108,7205.598915290704,304.34135250346094,6029.137197630072,6201.022112491383,5244.143932359688,-2198.8975642797427,187500.0
1660693640.5689392,10328.316429652743,7204.302514112296,303.8496141254442,6048.426753095002,6196.41765313359,5239.964156146545,-2198.830509046377,187500.0
1660693640.568948,10328.361133141654,7208.124662414153,308.856404883433,6030.791226719764,6189.443908863534,5236.834911922802,-2196.8859072787654,187500.0
1660693640.568957,10334.61962158914,7209.9798572039435,314.1761200637961,6018.564822502712,6188.013397218394,5234.040943865889,-2196.572982856391,187500.0
1660693640.5689683,10340.118150725146,7199.340426843218,309.23638453917323,6022.185805104471,6186.873458251173,5232.409266520652,-2193.510793866014,187500.0
1660693640.5689776,10331.445673876486,7192.679606995536,304.1178350589079,6019.86122368112,6188.41572861859,5228.743580429981,-2191.834413031866,187500.0
1660693640.5689867,10307.79752824277,7184.118888869154,298.6863611562683,6017.111959113116,6190.159164686104,5226.329592028808,-2189.4204246306927,187500.0
1660693640.5689957,10298.856830460649,7179.916760911556,296.7864628775672,6029.114845885617,6199.748063057431,5225.010839105945,-2186.4923461070475,187500.0
1660693640.5690053,10279.433164528986,7184.252999335886,305.19071879276265,6038.8825582125855,6208.04056025035,5224.586155961294,-2183.2289914165726,187500.0
1660693640.5690143,10273.733469692883,7181.190810345508,305.19071879276265,6054.215854908926,6191.634379820154,5222.418036749129,-2180.6138373153017,187500.0
1660693640.5690236,10308.199859642966,7180.252037078386,304.9672013482096,6045.833950738186,6170.7802022433525,5218.819405891825,-2177.5292965804692,187500.0
1660693640.569033,10366.67202313805,7177.145144599098,306.3977129933492,6008.439482264457,6166.93570219704,5214.46081572304,-2175.919970979687,187500.0
1660693640.5690417,10330.2386796759,7172.339519541207,304.40840773682686,6000.795185660742,6164.477010306956,5211.756254643948,-2173.1930581561396,187500.0
1660693640.569051,10306.970513697925,7166.125734582632,299.93805884576545,5975.157734770505,6165.684004507542,5209.386969731685,-2171.449622088626,187500.0
1660693640.56906,10293.447708302463,7170.171400329042,301.32386700199453,5998.582362959667,6169.684966765042,5206.749463885959,-2170.354386610316,187500.0
1660693640.5690691,10225.610163880607,7171.6466154630925,304.4531112257375,5971.447345190924,6165.482838807445,5203.93314408459,-2166.822810986377,187500.0
1660693640.5690784,10297.314560093231,7160.6719089355365,301.01094257962023,5971.894380080031,6154.798704957808,5197.272324236908,-2167.4263080866704,187500.0
1660693640.5690875,10262.937577120969,7151.060658819754,293.6572186538242,5987.4064907320135,6157.480914292445,5193.9195625686125,-2164.2970638629276,187500.0
1660693640.5690966,10281.623635485606,7151.664155920048,296.16061403281856,5982.913790096497,6154.664594491076,5191.773795100903,-2163.3582905958046,187500.0
1660693640.5691056,10293.179487369,7152.871150120634,300.72036990170125,5978.935179583452,6152.719992723464,5188.175164243599,-2163.291235362439,187500.0
1660693640.5691147,10282.60711224164,7148.959594840956,299.58043093448055,5986.400662231525,6153.770524712864,5183.8836293081795,-2161.257226617006,187500.0
1660693640.5691235,10264.099867832645,7144.377487227618,297.21114602221803,5973.369595214081,6150.17189385556,5180.284998450876,-2160.050232416419,187500.0
1660693640.5691328,10251.35937349312,7140.465931947939,291.8690790973996,5969.234522489849,6152.049440389806,5175.948760026546,-2158.418555071182,187500.0
1660693640.569142,10294.721757736417,7124.752655595858,281.2743522255841,5979.449269705924,6148.204940343492,5171.92544602459,-2156.541008536936,187500.0
1660693640.5691507,10292.41952805752,7118.561222381738,280.2238202361846,5979.605731917111,6138.660745461077,5167.700966322537,-2155.669290503179,187500.0
1660693640.56916,10268.592568468162,7121.176376483009,283.9565615602209,5982.444403462935,6146.014469386872,5163.074155220289,-2153.702336991112,187500.0
1660693640.5691707,10283.523533764308,7121.355190438651,285.85645983892204,5966.909941066497,6140.225367572948,5160.995442985945,-2149.6566712447016,187500.0
1660693640.5691795,10274.113449348622,7118.382408426096,283.2860092265617,5946.659260589989,6138.392524527612,5159.430820874074,-2147.242682843528,187500.0
1660693640.5691888,10181.912503470481,7116.303696191752,286.3929017058494,5935.103408706595,6133.899823892096,5156.838018517258,-2145.767467709478,187500.0
1660693640.569198,10276.08040286069,7111.609829856137,288.27044824009516,5981.527981940268,6126.6355069441215,5149.931329480569,-2146.415668298682,187500.0
1660693640.5692072,10280.528400007297,7095.74009129287,281.0061312921204,5972.922560324974,6138.280765805336,5146.600919556728,-2143.152313608207,187500.0
1660693640.5692165,10218.278791699266,7085.92767547699,273.6524073663244,5958.773906084765,6158.777315470853,5143.292861377342,-2142.057078129897,187500.0
1660693640.5692253,10216.088320742647,7081.92671321949,260.2637124375954,5918.049027687196,6117.650105673088,5137.503759563418,-2143.3981827972157,187500.0
1660693640.5692344,10208.555782861207,7058.412678052507,237.46493309318222,5930.7001150488995,6108.888221846607,5132.608727527706,-2141.2300635850506,187500.0
1660693640.5692437,10196.955227488903,7046.186273835454,225.3279358539505,5924.3075161346815,6104.999018311384,5129.0548001593115,-2139.576034495358,187500.0
1660693640.5692525,10197.424614122465,7049.4943320148395,229.5077120670929,5912.014056684263,6101.333332220714,5125.7690937243815,-2136.737362949534,187500.0
1660693640.5692616,10200.151526946012,7054.299957072731,245.48920935263746,5913.6233822850445,6103.680265388521,5120.136454121644,-2136.4244385271595,187500.0
1660693640.5692708,10219.798710322228,7061.094887387144,258.8555525369111,5942.6135948435785,6108.150614279582,5118.035390142845,-2135.128037348752,187500.0
1660693640.56928,10209.628666595063,7055.909282673512,261.82833454946694,5986.981807587363,6116.577221939233,5117.722465720471,-2131.998793125009,187500.0
1660693640.5692887,10210.209811950901,7059.39615480854,270.5902183759473,5998.604714704123,6116.219594027948,5115.1073116192,-2129.7189151905677,187500.0
1660693640.569298,10163.762886972772,7063.240654854853,276.8710585678886,5915.255059630283,6096.214782740448,5112.022770884368,-2127.2155198115734,187500.0
1660693640.569307,10169.082602153136,7074.550637549239,274.6582358668132,5863.153143304961,6088.436375670001,5108.357084793697,-2126.2767465444504,187500.0
1660693640.569316,10259.629518941585,7083.513687075817,279.1732882467852,5875.223085310828,6087.452898913968,5105.004323125401,-2125.025048854953,187500.0
1660693640.5693252,10256.544978206752,7079.825649240691,281.47551792568186,5878.955826634864,6087.810526825253,5103.707921946993,-2122.923984876154,187500.0
1660693640.5693343,10233.41092269551,7070.952006691934,277.60866613491373,5874.776050421721,6088.525782647823,5099.774014922859,-2123.0804470873413,187500.0
1660693640.569344,10227.73357960386,7061.832494954168,269.6290933643691,5880.676910957923,6084.770689579331,5095.348369520709,-2122.454598242593,187500.0
1660693640.569353,10170.960148687382,7053.785866950258,263.21414270569596,5901.955771679374,6084.100137245672,5090.810965396281,-2121.89580463121,187500.0
1660693640.569364,10207.907582272004,7040.933613888456,253.31231991199493,5882.375643536526,6082.200238966971,5088.061700828279,-2120.308830774883,187500.0
1660693640.5693731,10188.863895996083,7031.031791094755,256.5086193691038,5875.848934155576,6081.887314544597,5085.759471149382,-2118.8559673852883,187500.0
1660693640.5693824,10152.519959511752,7026.963773603889,259.03436649255354,5868.808134652154,6077.081689486706,5080.5738664357505,-2118.319525518361,187500.0
1660693640.5693915,10169.172009130956,7023.834529380147,250.76422104408994,5869.143410818984,6077.7969453092755,5076.416441967063,-2116.1961097951066,187500.0
1660693640.5694008,10185.935817472437,7021.2640787677865,251.70299431121282,5867.288216029193,6077.327558675714,5074.158915777078,-2114.251508027495,187500.0
1660693640.5694098,10153.995174645803,7011.585773418638,240.8623982503889,5880.766317935743,6078.668663343033,5072.571941920751,-2112.5974789378024,187500.0
1660693640.569419,10155.58214850213,7003.114462270077,228.63599403333595,5888.097690117084,6080.590913366189,5068.258055240876,-2111.70340915959,187500.0
1660693640.569428,10193.91539024298,7007.249534994309,237.88961623783308,5886.220143582838,6076.075860986217,5063.474781927441,-2110.138787047719,187500.0
1660693640.5694373,10176.033994678735,7009.14943327301,253.535837356548,5852.2231402663165,6069.39268939408,5059.742040603404,-2106.294287001406,187500.0
1660693640.5694463,10119.349970740077,6995.045482521711,251.97121524467653,5871.333881775604,6079.5850848657,5056.791610335304,-2104.1038160447856,187500.0
1660693640.5694551,10115.19254627139,6982.9978922603,253.89346526783294,5886.041329627196,6091.051529771273,5050.935453288013,-2104.7296648895344,187500.0
1660693640.5694644,10128.111854566558,6967.172857185943,239.2754243940621,5832.844177823566,6047.018593194318,5047.560339875262,-2104.7967201229003,187500.0
1660693640.5694735,10086.470554646321,6970.167990942954,221.34932534090584,5828.731456843789,6031.640593009066,5041.681831083516,-2106.540156190414,187500.0
1660693640.5694823,10117.986514328304,6981.947360270901,216.18607237172992,5828.619698121513,6040.313069857725,5036.831502536715,-2104.5284991894364,187500.0
1660693640.5694916,10140.852348906083,6987.311778940175,233.75454351360125,5828.9773260327975,6040.4695320689125,5033.299926912776,-2102.4274352106377,187500.0
1660693640.5695007,10116.690113149896,6994.2631714657755,244.57278782996988,5845.0035268072525,6035.462741310924,5029.0307437218125,-2103.992057322509,187500.0
1660693640.56951,10116.377188727522,6973.163124699966,228.23366263314043,5807.206726933328,6035.373334333102,5025.7450372868825,-2102.4050834661825,187500.0
1660693640.5695188,10153.950471156892,6969.385679887018,222.98100268614326,5807.564354844613,6036.423866322501,5022.526386085318,-2099.8793363427326,187500.0
1660693640.569528,10144.249814063289,6968.71512755336,225.41734283177172,5810.917116512909,6034.412209321525,5019.173624417022,-2096.0124845519645,187500.0
1660693640.569537,10130.838767390105,6966.703470552382,221.03640091853154,5821.91417478492,6035.887424455575,5013.8315574922035,-2094.22434499554,187500.0
1660693640.569546,10103.055549032159,6961.562569327662,213.07917989244223,5825.825730064599,6034.881595955086,5009.651781279062,-2092.123281016741,187500.0
1660693640.5695567,10071.293720161168,6940.328412095119,185.58653421241453,5818.807282305633,6045.833950738186,5005.695522510472,-2090.312789715861,187500.0
1660693640.569566,10086.09057499058,6930.94067942389,183.6195807003475,5808.167851944906,6024.979773161384,5000.196993374467,-2093.3749787062384,187500.0
1660693640.5695753,10092.438470415887,6952.197188400887,253.2005611897184,5827.2785934541935,6021.828177193186,4994.5196502828185,-2094.514917673459,187500.0
1660693640.569584,10103.413176943443,6952.867740734547,251.74769780012343,5827.323296943105,6019.682409725477,4991.613923503629,-2090.1786792491293,187500.0
1660693640.5695932,10081.843743544072,6926.93971716639,196.71770295115746,5785.212610389306,6024.644496994555,4988.931714168992,-2085.149536746685,187500.0
1660693640.5696025,10067.449220114853,6918.937792651391,199.51167100807083,5778.350624841527,6016.173185845993,4985.064862378224,-2083.964894290554,187500.0
1660693641.048118,10063.738830535272,6925.263336332243,196.71770295115746,5781.278703365172,6005.757272929821,4977.778193685794,-2084.546039646392,187500.0
1660693641.048256,10083.788345311683,6933.175853869421,192.22500231564075,5789.347683113538,6000.750482171832,4973.509010494829,-2081.5956093782916,187500.0
1660693641.0482671,10077.976891753304,6923.408141542452,188.82753715843407,5760.133953110451,6006.04784560774,4971.475001749397,-2076.0747284978306,187500.0
1660693641.048278,10069.75144979375,6916.881432161503,187.6652464467581,5719.699647390801,5976.141211526538,4966.088231335668,-2078.6675308546464,187500.0
1660693641.048288,10055.781609509184,6903.872716888513,176.15409805227497,5741.358487767993,5974.777755114765,4962.668414434006,-2080.9697605335427,187500.0
1660693641.0483105,10039.822463968094,6888.271199258709,160.1726007667304,5737.201063299306,5982.42205171848,4959.69563242145,-2081.193277978096,187500.0
1660693641.0483196,9992.123841300468,6879.688129387871,156.39515595378353,5732.194272541317,5981.840906362642,4956.387574242065,-2079.0251587659313,187500.0
1660693641.0483289,10002.182126305357,6874.390765951964,175.3717869963392,5741.179673812351,5982.019720318284,4951.31372825071,-2077.6617023541576,187500.0
1660693641.048338,10093.71251984984,6876.916513075414,177.47285097513807,5734.250633031205,5979.829249361665,4947.223359015388,-2074.7783273194227,187500.0
1660693641.0483475,10039.822463968094,6870.613321139017,149.53317040600425,5734.250633031205,5979.89630459503,4943.960004324914,-2071.5820278623137,187500.0
1660693641.0483563,9997.3094460141,6875.642463641461,170.11912704934204,5753.540188496136,5985.32777849767,4937.567405410696,-2068.6986528275793,187500.0
1660693641.048366,10004.953742617816,6899.178850552899,210.84400544691152,5723.946478837309,5979.51632493929,4932.381800697065,-2066.93286501561,187500.0
1660693641.0483751,10039.04015291216,6887.555943436139,176.08704281890903,5742.721944179767,5981.684444151455,4928.649059373029,-2068.2963214273836,187500.0
1660693641.0483842,9989.955722088305,6871.909722317425,160.66433914474717,5731.501368463203,5972.4978771803235,4923.061123259202,-2072.5431528738923,187500.0
1660693641.0483932,10042.504673302732,6870.032175783179,175.79647014099004,5731.32255450756,5961.746688097321,4917.7414080788385,-2072.051414495875,187500.0
1660693641.0484028,9989.285169754645,6846.87576852748,143.85582731435625,5758.837551932043,5966.2170369883825,4916.5120621337965,-2065.614112092747,187500.0
1660693641.0484173,9990.916847099883,6844.30531791512,134.51279813203791,5717.643286900912,5968.474563178368,4913.986315010347,-2061.7919637908894,187500.0
1660693641.0484269,10005.73605367375,6843.746524303738,147.23094072710762,5684.182725451318,5961.500818908313,4911.013532997791,-2060.5179143569367,187500.0
1660693641.0484357,9996.258914024702,6859.526855889185,179.4621562316604,5701.281809959628,5973.079022536162,4907.079625973657,-2059.087402711797,187500.0
1660693641.0484452,9935.886852250916,6856.285852943165,166.94517933668845,5689.748309820689,5947.799199557209,4903.5927538386295,-2060.4732108680264,187500.0
1660693641.0484543,9936.803273773585,6818.5784600470615,111.55755657643755,5673.632702068413,5943.46296113288,4900.35175089261,-2062.1048882132636,187500.0
1660693641.0484633,9943.262927921169,6819.204308891811,130.82476029691225,5683.713338817756,5949.676746091455,4896.5519543352075,-2061.7472603019787,187500.0
1660693641.0484724,9902.58275301251,6820.701875770316,147.32034770492885,5691.290580188105,5947.978013512852,4893.512117089286,-2060.4732108680264,187500.0
1660693641.0484817,9879.314587034534,6811.403550076909,99.77818724849072,5679.690024815801,5935.103408706595,4891.6792740439505,-2055.220550921029,187500.0
1660693641.0484905,9963.938291542327,6806.1955936188215,90.74808248854667,5705.327475706038,5935.259870917782,4888.371215864565,-2054.505295098459,187500.0
1660693641.0484996,10025.852623683528,6846.249919682732,182.99373185559892,5706.959153051276,5939.5067023642905,4883.8114599956825,-2058.8191817783336,187500.0
1660693641.048509,9976.678785881852,6854.83298955357,179.93154286522184,5652.040916924586,5940.020792486763,4881.978616950348,-2066.776402804423,187500.0
1660693641.048518,9924.934497467817,6813.169337888878,108.92005073071131,5676.493725358692,5922.921707978453,4879.139945404523,-2065.4352981371044,187500.0
1660693641.0485272,9934.858672005972,6793.34334055702,74.02897763597699,5635.724143472212,5918.4960625763015,4876.122459903057,-2063.289530669395,187500.0
1660693641.0485363,9971.537884657131,6810.554183787606,120.20768168064139,5628.30336431305,5918.429007342936,4872.099145901102,-2063.155420202663,187500.0
1660693641.0485456,9944.984012244227,6828.904965985414,164.35237697987284,5630.180910847296,5909.041274671707,4869.193419121912,-2061.680205068613,187500.0
1660693641.0485547,9976.79054460413,6812.051750666113,129.17073120721952,5648.107009900452,5908.080149660129,4865.527733031241,-2059.8473620232776,187500.0
1660693641.0485637,9917.044331675093,6798.3277795705535,119.04539096896542,5676.136097447407,5908.482481060324,4864.2983870862,-2058.8415335227887,187500.0
1660693641.0485728,9898.134755865904,6795.109128368989,125.79561779446814,5634.986535905187,5904.3474083360925,4860.587997506618,-2059.959120745554,187500.0
1660693641.0485818,9896.234857587202,6795.220887091266,128.65664108474746,5626.783445690089,5906.895507203997,4855.312985815166,-2058.4615538670487,187500.0
1660693641.0485911,9897.44185178779,6784.58145673054,118.08426595738722,5629.040971880076,5907.811928726665,4851.669651468951,-2058.8862370116994,187500.0
1660693641.0486,9873.57018870952,6773.115011824967,111.19992866515264,5605.996323346654,5898.491251288802,4847.355764789077,-2058.1933329335848,187500.0
1660693641.0486112,9886.645959215875,6763.727279153738,97.49830931404941,5603.2247070341955,5897.619533255045,4842.214863564356,-2057.5674840888364,187500.0
1660693641.04862,9863.266034515624,6758.072287806545,104.22618439509684,5613.148881572352,5902.313399590659,4838.705639684873,-2057.12044919973,187500.0
1660693641.0486293,9901.53222102311,6771.43863099082,114.28446939998501,5622.089579354475,5911.656428772978,4835.375229761032,-2055.1758474321186,187500.0
1660693641.0486383,9935.708038295274,6773.67380543635,110.88700424277833,5626.828149179,5892.83625994161,4831.128398314524,-2052.247768908473,187500.0
1660693641.0486476,9958.417410661867,6772.243293791211,104.1144256728203,5593.993436574154,5884.92374240443,4826.881566868015,-2049.967890974032,187500.0
1660693641.0486567,9879.42634575681,6781.407509017887,119.49242585807156,5570.971139785188,5888.991759895296,4822.970011588337,-2050.3031671408617,187500.0
1660693641.048666,9837.986211536672,6785.0061398751905,131.45060914166083,5575.933227054265,5876.921817889431,4819.170215030935,-2049.274986895917,187500.0
1660693641.0486753,9885.394261526379,6786.861334664981,128.38842015128378,5580.738852112157,5873.457297498858,4816.5997644185745,-2051.778382274912,187500.0
1660693641.0486844,9888.948188894772,6750.070363291546,71.74909970153567,5591.020654561598,5873.21142830985,4815.750398129273,-2053.7229840425234,187500.0
1660693641.0486932,9842.523615661099,6718.934383265303,39.71904989708065,5594.328712740983,5872.4738207428245,4812.464691694342,-2053.8794462537107,187500.0
1660693641.0487025,9880.901560890861,6732.881871805414,96.29131511346283,5580.694148623246,5866.036518339696,4806.206203246857,-2055.3993648766714,187500.0
1660693641.0487115,9841.987173794172,6759.368688984953,132.94817602016641,5571.284064207562,5873.613759710045,4803.546345656675,-2053.097135197775,187500.0
1660693641.0487208,9834.298173701545,6744.169502755345,67.03288162146588,5590.05952955002,5877.949998134375,4800.595915388574,-2051.9124927416437,187500.0
1660693641.0487297,9815.388597892357,6755.390078471909,85.13779463026461,5548.261767418596,5871.713861431344,4797.354912442554,-2050.0796496963085,187500.0
1660693641.0487387,9835.415760924312,6739.587395142007,85.71893998610258,5570.077070006975,5870.752736419766,4793.085729251591,-2049.4314491071045,187500.0
1660693641.048748,9869.815095641028,6744.3259649665315,128.12019921782007,5518.980982182144,5836.331049958593,4789.732967583295,-2046.2798531389062,187500.0
1660693641.0487573,9820.171871205792,6748.1928167573,121.61584158132572,5519.0480374155095,5832.933584801386,4785.352025670055,-2046.972757217021,187500.0
1660693641.0487664,9812.75109204663,6734.290031706099,92.02213192249917,5542.986755727143,5837.1357127589845,4780.836973290083,-2046.2351496499957,187500.0
1660693641.0487757,9790.64521678033,6720.051970488068,70.2515328230301,5552.553302354015,5841.986041305786,4778.601798844552,-2043.9105682266438,187500.0
1660693641.0487847,9827.793816065052,6727.629211858418,82.72380622909144,5516.634049014336,5839.594404649068,4774.489077864776,-2042.837684492789,187500.0
1660693641.0487938,9799.451804095723,6716.609801841951,64.44007926465027,5529.106322420397,5845.383506462992,4770.7563365407395,-2041.4742280810153,187500.0
1660693641.0488043,9784.900818455317,6705.903316247859,43.09416330983202,5519.47272056016,5827.815035321121,4765.70484229384,-2039.350812357761,187500.0
1660693641.0488136,9821.602382850931,6720.476653632719,92.96090518962207,5495.623409226348,5826.429227164892,4761.078031191591,-2040.9154344696326,187500.0
1660693641.0488229,9863.824828127006,6721.437778644297,125.9520800056553,5495.578705737437,5818.919041027909,4759.714574779818,-2039.3061088688505,187500.0
1660693641.048832,9838.366191192412,6695.0180166981245,72.53141075747142,5513.013066412576,5825.043419008663,4757.144124167457,-2035.3498501002612,187500.0
1660693641.048841,9790.421699335779,6703.154051679856,78.96871316059985,5498.238563327618,5821.4671398958135,4753.5007898212425,-2029.3372308417836,187500.0
1660693641.04885,9751.574367472454,6713.748778551671,73.29137006895186,5483.061728842465,5817.086197982574,4751.377374097989,-2025.671544751113,187500.0
1660693641.04886,9702.467584904145,6695.4874033316855,52.48189598106098,5501.390159295816,5817.466177638314,4748.426943829888,-2028.5325680413926,187500.0
1660693641.0488691,9782.911513198795,6700.449490600764,64.97652113157763,5504.362941308373,5829.647878366456,4743.151932138435,-2033.159379143641,187500.0
1660693641.0488787,9806.291437899046,6707.669104059828,43.340032498840394,5479.440746240705,5827.926794043397,4740.290908848156,-2032.645289021169,187500.0
1660693641.048888,9779.424641063768,6718.844976287482,77.44879453763897,5476.400908994783,5814.091064225562,4736.647574501941,-2032.0417919208758,187500.0
1660693641.0488975,9781.07867015346,6701.7682435236275,74.81128869191274,5503.982961652632,5812.10175896904,4734.971193667793,-2030.678335509102,187500.0
1660693641.0489063,9745.11471332487,6677.717766489717,31.158331770698044,5515.918793191766,5823.814073063621,4732.154873866424,-2029.0019546749538,187500.0
1660693641.0489156,9736.822216131952,6662.451525026742,-11.779369327946823,5450.070554026432,5812.638200835968,4728.2656703312,-2029.2925273528729,187500.0
1660693641.0489247,9758.346946042413,6678.567132779019,49.46441047959453,5443.186216734197,5799.4506716073365,4721.046056872136,-2031.7512192429567,187500.0
1660693641.0489337,9771.042736893027,6722.085979233501,154.27174023052936,5454.786772106501,5794.600343060535,4715.502824247221,-2031.6841640095909,187500.0
1660693641.0489428,9710.603619885876,6691.888772474382,67.18934383265304,5438.782923076502,5792.029892448175,4712.9994288682265,-2030.1418936421746,187500.0
1660693641.048952,9706.379140183824,6644.883053884871,4.9397355246228605,5429.4175421497275,5792.096947681541,4708.082045088058,-2031.7959227318672,187500.0
1660693641.0489614,9749.249786049102,6636.50114971413,28.923157325167338,5435.02783000801,5791.202877903328,4703.008199096704,-2035.707478011546,187500.0
1660693641.0489705,9745.673506936253,6674.923798432804,75.34773055884011,5437.352411431362,5787.805412746122,4698.873126372472,-2036.7580100009454,187500.0
1660693641.0489795,9792.500411570121,6678.880057201392,37.05919230689911,5437.285356197996,5789.392386602448,4696.235620526746,-2034.254614621951,187500.0
1660693641.0489883,9783.202085876714,6676.443717055764,46.80455288941299,5449.422353437228,5803.608096076024,4694.045149570125,-2032.9135099546327,187500.0
1660693641.0489976,9661.899168717762,6656.528312746086,39.58493943034881,5460.262949498052,5799.070691951596,4691.78762338014,-2034.5898907887806,187500.0
1660693641.0490081,9707.317913450946,6666.608949495429,29.861930592290236,5411.73731228558,5755.797714686121,4685.663245399385,-2037.160341401141,187500.0
1660693641.0490177,9701.864087803851,6672.46510654272,31.381849215251115,5386.323378839896,5757.943482153832,4681.25995174169,-2041.0718966808197,187500.0
1660693641.0490265,9722.986486314117,6677.874228700904,58.315701283896125,5385.54106778396,5757.228226331262,4676.499030172709,-2044.6258240492136,187500.0
1660693641.0490355,9731.5472044405,6674.923798432804,69.0221868779882,5406.30583838294,5758.792848443133,4674.040338282626,-2046.9280537281102,187500.0
1660693641.049059,9633.355991048336,6637.2164055367,18.64135487572609,5432.12210322882,5767.979415414264,4671.201666736802,-2052.203065419563,187500.0
1660693641.0490801,9712.280000720024,6636.523501458586,5.945564025111679,5402.774262759002,5754.702479207812,4666.463096912276,-2054.17001893163,187500.0
1660693641.0491023,9697.997236013083,6641.7761614055835,26.129189268253956,5381.405995059728,5753.3166710515825,4665.166695733868,-2055.3993648766714,187500.0
1660693641.0491116,9686.374328896323,6650.31452778751,27.24677649101931,5409.323323884407,5757.988185642742,4663.937349788827,-2057.9027602556657,187500.0
1660693641.049121,9721.35480896888,6668.084164629479,63.90363739772289,5391.844259720357,5754.858941418999,4662.216265465769,-2060.652024823669,187500.0
1660693641.0491297,9719.253744990081,6643.02785909508,38.73557314104714,5336.233119515553,5742.677240690857,4661.322195687556,-2060.36145214575,187500.0
1660693641.0491388,9693.30336967747,6632.746056645639,15.512110651983102,5381.9871404155665,5743.236034302239,4655.220169451257,-2062.864847524744,187500.0
1660693641.049148,9683.088622461393,6634.69065841325,63.858933908812276,5373.471125778095,5738.788037155633,4651.420372893855,-2065.256484181462,187500.0
1660693641.049157,9692.006968499061,6619.960858817203,34.93577658364494,5380.646035748248,5744.264214547184,4648.291128670112,-2068.6315975942134,187500.0
1660693641.049166,9707.317913450946,6636.769370647594,22.865834577779125,5374.387547300762,5748.734563438245,4645.3183466575565,-2071.738490073501,187500.0
1660693641.0491755,9692.878686532818,6626.889899598348,10.88529954973454,5348.571282454883,5732.328383008049,4645.9665472467605,-2071.157344717663,187500.0
1660693641.0491843,9658.881683216296,6607.399178433321,-6.5937646143155835,5339.854102117312,5726.539281194125,4643.194930934302,-2073.727795330023,187500.0
1660693641.0491936,9686.553142851966,6615.177585503768,28.498474180516506,5358.942491882145,5728.930917850843,4636.735276786719,-2078.7569378324674,187500.0
1660693641.0492024,9711.967076297651,6634.310678757511,39.8755121082678,5387.910352696223,5734.138874308929,4633.181349418324,-2079.293379699395,187500.0
1660693641.0492115,9677.321872391925,6603.554678387008,-9.633601860237343,5342.268090518486,5723.186519525829,4632.331983129023,-2080.4333186666154,187500.0
1660693641.0492208,9656.71356400413,6578.744242041617,-36.23217776205275,5331.628660157759,5719.967868324265,4629.359201116467,-2083.428452423627,187500.0
1660693641.04923,9647.661107499733,6604.02406502057,41.082506308854384,5348.370116754784,5712.122406020451,4624.933555714316,-2087.407062936671,187500.0
1660693641.0492408,9689.078889975417,6613.92588781427,39.763753385991265,5313.367284937774,5707.428539684837,4622.005477190671,-2089.6869408711127,187500.0
1660693641.0492504,9675.667843302232,6610.327256956966,27.78321835794668,5315.356590194296,5708.099092018497,4620.709076012263,-2091.251562982984,187500.0
1660693641.0492597,9660.893340217273,6615.915193070793,25.12336076776514,5318.463482673584,5711.831833342532,4618.786825989107,-2093.218516495051,187500.0
1660693641.0492687,9672.560950822945,6597.944390528726,-13.053418761899325,5313.14376749322,5705.4168826838595,4615.367009087445,-2096.0124845519645,187500.0
1660693641.049278,9672.180971167203,6599.084329495947,6.504357636494356,5308.785177324436,5701.125347748441,4612.304820097068,-2098.158252019674,187500.0
1660693641.0492873,9631.701961958643,6589.11545146888,5.6102878582820725,5312.741436093025,5700.164222736862,4608.348561328478,-2100.326371231839,187500.0
1660693641.0492964,9603.18113603367,6583.505163610597,-11.220575716564145,5296.37995915174,5699.493670403203,4603.073549637026,-2104.0144090669646,187500.0
1660693641.0493057,9616.189851306659,6575.391480373321,-8.717180337569754,5292.758976549981,5695.537411634614,4598.737311212696,-2108.1718335356513,187500.0
1660693641.0493145,9623.074188598894,6572.77632627205,-29.23608174754164,5293.138956205721,5695.917391290354,4595.965694900238,-2109.803510880889,187500.0
1660693641.0493236,9640.732066718587,6576.956102485193,-40.233140019552714,5311.28857270343,5701.0135890261645,4592.81409893204,-2112.0386853264195,187500.0
1660693641.0493329,9659.10520066085,6604.113471998391,41.17191328667561,5320.564546652383,5691.514097632658,4591.070662864526,-2113.4915487160147,187500.0
1660693641.049342,9598.889601098252,6541.2827183345225,-41.753058642513594,5284.9582177350785,5689.815365054055,4590.355407041956,-2112.441016726615,187500.0
1660693641.049351,9582.997510790528,6531.425599029732,-33.617023660781825,5263.65700526917,5675.21967592474,4584.789822672585,-2118.8559673852883,187500.0
1660693641.04936,9610.870136126297,6605.521631899075,45.15052379972027,5304.203069711098,5673.722109046234,4580.274770292613,-2121.3370110198275,187500.0
1660693641.0493693,9652.422029068712,6609.16496624529,17.568471141871353,5257.711441244059,5673.051556712575,4580.520639481621,-2118.900670874199,187500.0
1660693641.0493784,9669.454058343657,6558.448858076198,-40.41195397519517,5236.589042733794,5662.680347285313,4577.480802235699,-2122.4322464981374,187500.0
1660693641.0493877,9594.955694074119,6541.796808456995,-31.828884104357257,5263.254673868975,5664.848466497478,4572.898694622361,-2126.030877355442,187500.0
1660693641.0493965,9561.249263435515,6532.3420205524,-29.191378258631023,5258.247883110987,5663.797934508078,4567.33311025299,-2129.2048250680955,187500.0
1660693641.0494056,9571.12873448476,6557.398326086799,-4.671514591159176,5275.2128571525645,5667.709489787757,4560.940511338772,-2132.937566392132,187500.0
1660693641.5275588,9590.6641591387,6560.706384266185,-4.470348891061413,5245.8650166827465,5662.970919963232,4558.906502593339,-2134.189264081629,187500.0
1660693641.5277205,9562.880940780753,6546.9824131706255,-35.00283181701086,5224.899080383669,5655.6395477818905,4556.6266246588975,-2137.6984879611123,187500.0
1660693641.5277352,9575.599083375822,6542.445009046199,-35.78514287294661,5220.7416559149815,5643.323736587016,4553.922063579806,-2142.4594095300927,187500.0
1660693641.527746,9586.41732769219,6546.065991647958,-38.26618650748569,5243.540435259394,5656.064230926541,4550.189322255769,-2144.1357903642406,187500.0
1660693641.5277557,9571.776935073965,6543.9872794136145,-21.725895610558464,5199.440443449073,5653.717297758734,4544.377868697389,-2145.678060731657,187500.0
1660693641.5277658,9570.07820249536,6537.169997354746,-11.086465249832303,5209.163452287132,5649.604576778958,4539.840464572962,-2148.8520084443103,187500.0
1660693641.5277758,9549.760466785487,6505.721092906129,-56.77343091647994,5219.869937881224,5641.602652263958,4536.532406393577,-2153.7246887355673,187500.0
1660693641.5277853,9545.84891150581,6507.844508629383,-60.886151896256436,5208.31408599783,5640.552120274559,4534.118417992404,-2156.4292498146597,187500.0
1660693641.5277953,9550.27455690796,6535.62772698733,-36.16512252868683,5198.255800992943,5633.3325068154945,4531.927947035783,-2158.865589960288,187500.0
1660693641.527805,9588.764260859998,6567.166038413768,-26.71033462409194,5202.167356272621,5631.678477725802,4528.999868512138,-2163.179476640162,187500.0
1660693641.5278273,9582.148144501227,6554.939634196715,-21.792950843924388,5209.208155776043,5639.188663862785,4527.412894655811,-2163.7159185070896,187500.0
1660693641.5278368,9495.535134736912,6540.858035189872,-25.86096833479027,5181.849620562747,5637.333469072994,4526.6305835998755,-2163.4700493180812,187500.0
1660693641.527846,9575.286158953448,6525.345924537889,-43.004756332010786,5182.430765918585,5624.950602644754,4521.534385864065,-2168.5215435649807,187500.0
1660693641.5278556,9565.294929181926,6518.975677368126,-49.17383780167554,5186.610542131727,5628.325716057506,4519.030990485071,-2170.957883710609,187500.0
1660693641.5278652,9542.56320507088,6507.8892121182935,-56.974596616577706,5193.785452101881,5627.453998023749,4516.907574761817,-2173.5283343229694,187500.0
1660693641.5278747,9527.40872233018,6484.106956017847,-82.79086146245736,5186.588190387272,5621.642544465369,4514.761807294108,-2176.7469855245336,187500.0
1660693641.527884,9518.40096931469,6484.777508351506,-85.74129173055789,5174.004158258934,5625.73291370069,4511.789025281551,-2179.1386221812513,187500.0
1660693641.5278933,9547.905271995696,6519.914450635249,-31.35949747079581,5188.532792154884,5626.604631734447,4507.519842090588,-2183.0725292053853,187500.0
1660693641.5279026,9543.144350426717,6513.611258698852,-23.692849122625486,5190.946780556057,5630.426780036304,4505.552888578522,-2185.1288896952738,187500.0
1660693641.5279124,9563.059754736394,6488.845525842372,-33.8628928497902,5185.917638053613,5607.762111158623,4500.255525142614,-2189.867459519799,187500.0
1660693641.5279336,9561.092801224328,6516.785206411506,-15.132130996242882,5157.888550506657,5597.72617789819,4496.120452418381,-2192.1696891986953,187500.0
1660693641.5279431,9528.012219430473,6512.404264498266,-54.7617739155023,5137.168483396588,5600.430738977282,4493.281780872558,-2193.6896078216564,187500.0
1660693641.5279524,9495.669245203644,6494.455813700654,-63.970692631088816,5138.308422363809,5608.343256514461,4488.163231392292,-2197.3329421678714,187500.0
1660693641.527962,9489.187239311605,6489.359615964844,-68.01635837749939,5151.518303336895,5596.9438668422545,4483.536420290044,-2200.641000347257,187500.0
1660693641.5279734,9523.251297861492,6475.635644869286,-45.53050345546049,5147.338527123753,5592.160593528819,4480.295417344024,-2202.9432300261533,187500.0
1660693641.5279827,9507.4933180205,6477.312025703433,-30.219558503575147,5135.581509540261,5592.831145862478,4479.0884231434375,-2204.597259115846,187500.0
1660693641.5279925,9491.847096901787,6444.6114235653195,-103.06389368342087,5192.60080964575,5603.269410523107,4474.841591696929,-2207.05595100593,187500.0
1660693641.5280018,9436.526529374902,6440.342240374356,-120.74412354756875,5168.416222145107,5611.53955597157,4469.544228261021,-2209.157014984729,187500.0
1660693641.528011,9441.86859629972,6447.651260811242,-102.16982390520859,5118.527128520862,5582.594046901947,4465.140934603326,-2212.062741763919,187500.0
1660693641.5280204,9409.950305217542,6459.005946994537,-67.85989616631224,5118.527128520862,5575.799116587534,4459.798867678508,-2216.1531109992397,187500.0
1660693641.52803,9451.591605137779,6460.548217361953,-48.05625057891019,5110.2122795834875,5574.480363664671,4456.267292054569,-2219.885852323276,187500.0
1660693641.5280392,9483.129916564218,6452.255720169034,-59.14271582874249,5110.636962728138,5575.955578798721,4454.680318198242,-2222.568061657913,187500.0
1660693641.5280485,9499.267876060949,6463.476295885599,-37.75209638501363,5116.515471519884,5577.944884055243,4452.3780885193455,-2223.6856488806784,187500.0
1660693641.528058,9515.003504157485,6485.984502552093,6.482005892039048,5140.610652042706,5581.2082387457185,4449.628823951343,-2225.697305881656,187500.0
1660693641.5280676,9516.45636754708,6485.850392085361,-2.2575261899860135,5103.082073102245,5571.485229907659,4448.421829750756,-2226.8372448488767,187500.0
1660693641.528077,9517.819823958853,6503.508270205053,4.291534935418956,5113.430930785052,5579.53185791157,4444.107943070882,-2230.9723175731087,187500.0
1660693641.5280862,9489.746032922987,6490.2760374875115,-23.82695958935733,5135.156826395611,5578.615436388903,4439.92816685774,-2234.9956315750637,187500.0
1660693641.5280955,9434.291354929372,6459.855313283839,-52.19132330314199,5119.912936677091,5571.395822929839,4437.357716245379,-2235.956756586642,187500.0
1660693641.5281048,9469.674166402123,6499.127328291814,41.7754103869689,5091.302703774298,5565.67377634928,4431.97094583165,-2241.052954322452,187500.0
1660693641.5281143,9490.774213167932,6464.459772641632,-24.385753200740005,5084.284256015331,5565.517314138093,4430.763951631064,-2242.8410938788766,187500.0
1660693641.5281236,9461.806352353853,6425.74655124504,-68.53044849997146,5074.270674499354,5563.393898414838,4430.629841164332,-2245.7691724025217,187500.0
1660693641.5281332,9443.992012022974,6459.005946994537,-47.363346500795664,5100.91395389008,5562.2539594476175,4428.282907996525,-2248.853713137354,187500.0
1660693641.5281425,9475.820896127332,6468.013700010026,-63.76952693099105,5116.984858153446,5560.935206524755,4427.053562051483,-2249.7254311711113,187500.0
1660693641.5281515,9454.49733191697,6453.529769602987,-65.87059090978991,5082.406709481086,5560.398764657827,4425.332477728424,-2251.401812005259,187500.0
1660693641.5281613,9439.275793942905,6442.577414819886,-63.3001402974296,5073.354252976686,5565.1820379712635,4421.420922448745,-2253.7487451730663,187500.0
1660693641.5281723,9444.282584700893,6443.516188087009,-60.50617224051622,5072.080203542734,5563.796229815034,4417.196442746692,-2259.7837161759994,187500.0
1660693641.5281816,9444.237881211982,6444.812589265417,-85.74129173055789,5070.850857597692,5550.876921519866,4413.553108400477,-2261.571855732424,187500.0
1660693641.528191,9463.572140165823,6452.836865524872,-85.093091141354,5068.4815726854295,5546.965366240188,4410.513271154556,-2262.6223877218235,187500.0
1660693641.5282004,9441.332154432792,6451.451057368643,-89.09405339885396,5093.649636942106,5552.486247120649,4407.048750763983,-2262.890608655287,187500.0
1660693641.5282097,9404.474127825992,6441.75040027504,-92.64798076724777,5089.9615991069795,5552.57565409847,4405.528832141022,-2261.862428410343,187500.0
1660693641.5282192,9411.179651162583,6433.681420526675,-89.5634400324154,5065.173514506044,5557.046002989531,4402.712512339654,-2262.2647598105386,187500.0
1660693641.5282283,9405.971694704496,6429.456940824622,-95.86663196881199,5057.372755691142,5556.397802400327,4398.8456605488855,-2265.1034313563623,187500.0
1660693641.528238,9423.562517590824,6437.2129961506125,-81.673274239692,5045.883959041114,5540.036325459043,4397.169279714737,-2266.444536023681,187500.0
1660693641.528247,9457.313651718337,6452.009850980026,-78.20875384911942,5065.754659861882,5550.832218030956,4396.834003547908,-2266.7351087016,187500.0
1660693641.5282567,9408.497441827947,6437.838844995362,-87.86470745381206,5072.124907031644,5555.503732622115,4395.649361091776,-2268.411489535748,187500.0
1660693641.528266,9390.079604396773,6419.286897097457,-115.40205662275037,5048.007374764368,5555.883712277855,4393.637704090798,-2269.8643529253427,187500.0
1660693641.5282753,9410.53145057338,6422.058513409915,-126.51087361703797,5055.450505667985,5545.758372039601,4390.709625567153,-2273.1947628491835,187500.0
1660693641.5282845,9410.263229639915,6414.481272039566,-120.2747369140073,5073.845991354703,5531.676773032757,4387.178049943215,-2277.799222206977,187500.0
1660693641.528294,9375.483915267458,6412.98370516106,-79.7733759609909,5080.909142602581,5541.310374892995,4386.261628420547,-2278.201553607172,187500.0
1660693641.5283036,9382.278845581872,6407.015789391493,-94.68198951268072,5069.0627180412675,5543.8584737609,4384.205267930659,-2279.8108792079543,187500.0
1660693641.5283127,9438.806407309343,6430.418065836199,-99.7111320151248,5045.9957177633905,5546.2277586731625,4381.433651618201,-2280.3249693304265,187500.0
1660693641.5283222,9409.324456372793,6449.551159089942,-114.01624846652133,5040.385429905108,5540.393953370328,4379.801974272964,-2279.11797512984,187500.0
1660693641.5283315,9399.19911613454,6441.728048530585,-110.35056237585097,5030.595365833684,5534.694258534224,4376.449212604668,-2283.8788966988204,187500.0
1660693641.5283408,9412.967790719007,6434.08375192687,-110.05998969793198,5045.638089852106,5533.174339911264,4374.035224203494,-2287.2316583671163,187500.0
1660693641.52835,9433.307878173337,6424.539557044453,-119.6488880692587,5057.439810924508,5543.299680149517,4372.068270691428,-2290.249143868583,187500.0
1660693641.5283597,9377.853200179721,6415.598859262331,-125.25917592754078,5066.671081384549,5546.026592973065,4368.447288089667,-2291.9031729582757,187500.0
1660693641.5283709,9407.089281927263,6411.17321386018,-127.96373700663294,5078.361043734675,5557.515389623093,4362.76994499802,-2296.6193910383454,187500.0
1660693641.5283802,9433.352581662248,6416.291763340445,-122.37580089280617,5059.943206303502,5550.027555230565,4361.406488586246,-2299.301600372982,187500.0
1660693641.5283897,9339.251737505405,6412.939001672149,-128.88015852930053,5037.859682781659,5528.368714853373,4362.635834531287,-2300.441539340203,187500.0
1660693641.5283988,9365.962072129498,6412.8495946943285,-129.4613038851385,5034.685735069005,5527.8546247309005,4358.657224018243,-2304.1072254308733,187500.0
1660693641.5284083,9392.851220709232,6413.0284086499705,-126.98026025059943,5028.673115810528,5532.459084088693,4357.114953650827,-2304.531908575524,187500.0
1660693641.5284176,9396.785127733365,6411.575545260375,-131.2941469304737,5027.8013977767705,5529.195729398219,4355.9973664280615,-2304.8448329978983,187500.0
1660693641.5284271,9350.47231322197,6405.741739957541,-137.0385452554876,5078.785726879326,5526.826444485956,4351.683479748187,-2308.376408621837,187500.0
1660693641.5284364,9389.207886363016,6402.74660620053,-139.16196097874177,5023.912194241548,5531.877938732856,4347.995441913062,-2311.8856325013203,187500.0
1660693641.5284455,9400.316703357305,6398.5891817318425,-141.53124589100432,5002.298057353265,5531.296793377018,4346.140247123271,-2312.4891296016135,187500.0
1660693641.5284553,9339.363496227681,6395.1246613412695,-143.7217168476244,5015.195013903977,5534.180168411752,4343.390982555268,-2316.7583127925773,187500.0
1660693641.5284643,9316.676475605545,6392.040120606437,-145.66631861523612,5043.738191573405,5543.299680149517,4340.664069731721,-2321.1616064502728,187500.0
1660693641.5284739,9369.605406475712,6398.052739864915,-138.84903655636748,5011.618734791128,5531.050924188009,4339.747648209053,-2319.664039571767,187500.0
1660693641.5284832,9339.318792738772,6400.779652688462,-134.87042604332282,5014.949144714969,5536.281232390551,4337.2666045745145,-2319.3734668938478,187500.0
1660693641.5284927,9382.23414209296,6394.07412935187,-141.8441703133786,5039.536063615807,5542.517369093582,4335.299651062447,-2320.178129694239,187500.0
1660693641.528502,9377.89790366863,6384.9099141251945,-149.10848726135342,4998.833536962693,5526.155892152297,4332.930366150184,-2323.106208217884,187500.0
1660693641.5285113,9370.119496598185,6380.64073093423,-152.97533905212154,5006.857813222148,5528.681639275746,4330.561081237922,-2324.827292540943,187500.0
1660693641.5285208,9380.71422347,6387.815640904384,-148.10265876086459,5015.127958670611,5532.861415488889,4329.443494015157,-2322.5474146065017,187500.0
1660693641.52853,9340.32462123926,6387.033329848448,-147.96854829413275,5014.703275525961,5524.23364212914,4327.185967825171,-2322.7038768176885,187500.0
1660693641.5285392,9355.076772579763,6382.4065187462,-150.87427507332268,5004.957914943447,5523.026647928554,4324.771979423997,-2326.950708264197,187500.0
1660693641.5285487,9378.970787402486,6381.110117567792,-152.30478671846234,4983.232019332889,5523.183110139741,4321.799197411442,-2329.990545510119,187500.0
1660693641.5285583,9370.253607064917,6379.813716389384,-154.1376297637975,5033.322278657231,5520.702066505202,4318.334677020869,-2331.9351472777307,187500.0
1660693641.5285673,9296.179925940029,6378.606722188798,-151.83540008490087,5036.6079850921615,5524.010124684587,4316.434778742168,-2332.695106589211,187500.0
1660693641.5285783,9308.898068535098,6375.186905287136,-153.78000185251258,5002.052188164257,5521.797301983512,4316.032447341972,-2332.6727548447557,187500.0
1660693641.528588,9372.086450110251,6372.683509908141,-157.11041177635335,5006.969571944424,5522.199633383708,4315.071322330395,-2336.0255165130516,187500.0
1660693641.528597,9345.443170719525,6371.185943029635,-157.9150745767444,5050.175493976533,5533.062581188987,4312.389112995757,-2338.2606909585825,187500.0
1660693641.5286067,9348.70652541,6374.136373297736,-153.60118789687013,5007.438958577986,5534.4260376007605,4313.149072307238,-2336.2266822131496,187500.0
1660693641.528616,9339.18468227204,6376.4609547210885,-150.40488843976124,5015.37382785962,5547.14418019583,4309.259868772015,-2338.305394447493,187500.0
1660693641.5286255,9368.823095419777,6375.410422731688,-147.43210642720538,5009.852946979159,5546.674793562269,4308.119929804794,-2338.752429336599,187500.0
1660693641.5286348,9378.836676935754,6372.370585485767,-147.8344378274009,5012.579859802707,5535.655383545803,4306.42119722619,-2340.0041270260963,187500.0
1660693641.528644,9400.09318591275,6373.510524452988,-143.0735162584205,5028.315487899243,5517.639877514825,4305.482423959068,-2340.428810170747,187500.0
1660693641.5286536,9387.978540417975,6371.856495363295,-140.61482436833674,4987.36709205712,5515.80703446949,4303.6942844026435,-2341.501693904602,187500.0
1660693641.5286627,9314.284838948828,6367.140277283225,-136.7256208331133,5003.6168102761285,5519.0480374155095,4301.9955518240395,-2343.625109627856,187500.0
1660693641.5286722,9336.144845026118,6361.664099891675,-138.33494643389542,5023.062827952245,5523.741903751124,4298.463976200102,-2346.977871296152,187500.0
1660693641.5286815,9363.123400583674,6357.707841123086,-143.16292323624174,4986.718891467916,5524.479511318149,4296.720540132587,-2347.246092229616,187500.0
1660693641.5286913,9404.205906892528,6361.172361513658,-142.02298426902107,4982.673225721505,5535.09658993442,4295.84882209883,-2347.3802026963476,187500.0
1660693641.5287004,9403.133023158673,6365.910931338183,-136.23388245509653,5004.577935287707,5526.826444485956,4295.84882209883,-2348.833066085943,187500.0
1660693641.52871,9345.018487574875,6367.855533105795,-131.45060914166083,5026.773217531827,5526.491168319127,4293.837165097852,-2353.5492841660125,187500.0
1660693641.5287192,9338.55883342729,6365.665062149175,-129.57306260741504,5032.316450156743,5531.922642221766,4290.573810407378,-2356.6785283897557,187500.0
1660693641.5287287,9353.400391745614,6365.150972026703,-123.06870497092069,4984.170792600012,5539.902214992311,4289.746795862531,-2355.024499300063,187500.0
1660693641.5287385,9333.32852522475,6356.478495178044,-127.04731548396535,5016.580822060207,5536.4823980906485,4288.808022595408,-2356.8126388564874,187500.0
1660693641.5287478,9295.777594539833,6346.4649136620665,-134.8257225544122,5012.110473169145,5536.415342857283,4285.455260927112,-2364.456935460202,187500.0
1660693641.528757,9353.735667912444,6337.6583263466755,-140.63717611279205,4985.377786800598,5531.766180010579,4279.107365501805,-2371.073051818973,187500.0
1660693641.5287669,9385.51984852789,6331.042209987904,-142.87235055832275,4984.282551322288,5529.776874754057,4272.446545654124,-2376.5492292105237,187500.0
1660693641.528778,9352.171045800573,6325.946012252094,-144.16875173673054,5012.84808073617,5528.413418342283,4271.440717153635,-2377.4209472442803,187500.0
1660693641.5287874,9335.787217114832,6325.454273874077,-139.51958889002668,4997.090100895179,5525.239470629629,4272.379490420758,-2375.1187175653836,187500.0
1660693641.528797,9372.064098365796,6328.5611663533655,-134.8257225544122,4976.325330296198,5520.009162427087,4273.899409043719,-2372.503563464113,187500.0
1660693641.5288067,9372.086450110251,6329.656401831675,-134.60220510985914,4987.098871123657,5523.250165373107,4271.775993320464,-2372.503563464113,187500.0
1660693641.5288167,9401.747215002444,6326.72832330803,-137.41852491122782,4977.5546762412405,5528.18990089773,4268.020900251973,-2374.604627442912,187500.0
1660693641.5288265,9369.985386131453,6330.662230332164,-134.04341149847644,4981.7791559432935,5530.469778832171,4266.031594995451,-2375.4763454766685,187500.0
1660693641.528836,9355.657917935601,6328.047076230893,-137.59733886687027,4994.340836327176,5531.497959077115,4266.031594995451,-2378.3597205114033,187500.0
1660693641.5288453,9369.225426819972,6326.527157607932,-138.6031673673591,4995.681940994495,5532.3696771108725,4265.94218801763,-2377.599761199923,187500.0
1660693641.5288548,9344.169121285573,6324.9178320071505,-139.65369935675852,4970.200952315445,5525.954726452199,4264.757545561498,-2376.593932699434,187500.0
1660693641.5288644,9341.151635784106,6321.788587783407,-143.85582731435625,4972.547885483252,5535.8565492459,4262.120039715772,-2379.790232156543,187500.0
1660693641.5288737,9309.903897035587,6319.307544148868,-147.56621689393722,4994.676112494006,5528.7933979980235,4262.6564815827,-2381.2654472905933,187500.0
1660693642.009564,9343.878548607654,6319.061674959859,-145.80042908196796,5017.139615671589,5528.94986020921,4262.835295538342,-2380.2149153011937,187500.0
1660693642.0096345,9347.141903298128,6315.239526658002,-148.77321109452382,5034.261051924354,5553.939110510244,4261.248321682015,-2382.2265723021715,187500.0
1660693642.009704,9373.293444310839,6314.367808624245,-150.71781286213553,5007.304848111254,5528.435770086739,4259.504885614501,-2383.7688426695877,187500.0
1660693642.009714,9332.009772301886,6317.318238892346,-146.71685060463557,5014.189185403488,5531.1403311658305,4259.147257703216,-2383.411214758303,187500.0
1660693642.0097241,9333.999077558408,6317.809977270363,-145.08517325939815,4972.45847850543,5531.7885317550345,4258.186132691638,-2383.657083947311,187500.0
1660693642.009734,9423.853090268742,6318.77110228194,-144.14639999227524,4974.134859339579,5539.0081452140985,4255.772144290465,-2384.5511537255234,187500.0
1660693642.0097437,9306.104100478186,6316.290058647402,-145.04046977048753,4977.778193685794,5540.2374911591405,4254.274577411959,-2385.8699066483864,187500.0
1660693642.0097528,9341.263394506383,6314.546622579887,-145.10752500385345,4978.336987297176,5532.5484910665145,4254.006356478495,-2389.0885578499506,187500.0
1660693642.0097628,9362.18462731655,6321.743884294497,-138.06672550043172,4974.626597717595,5530.626241043358,4255.861551268286,-2391.368435784392,187500.0
1660693642.0097847,9324.723103609456,6323.889651762206,-135.1609987212418,5012.781025502804,5543.366735382883,4254.967481490074,-2394.1624038413056,187500.0
1660693642.0097992,9344.414990474581,6318.368770881745,-140.63717611279205,5001.1804701305,5549.558168597004,4254.0957634563165,-2394.363569541403,187500.0
1660693642.0098088,9320.096292507207,6321.095683705293,-141.19596972417472,4977.12999309659,5538.471703347172,4253.939301245129,-2393.42479627428,187500.0
1660693642.009818,9313.502527892892,6317.385294125712,-141.7771150800127,4994.8102229607375,5546.786552284545,4253.671080311666,-2393.849479418931,187500.0
1660693642.0098271,9332.479158935448,6316.580631325321,-141.06185925744288,4995.726644483405,5545.132523194853,4252.88876925573,-2391.502546251124,187500.0
1660693642.009836,9338.290612493827,6320.358076138267,-136.74797257756862,4994.8102229607375,5554.0955727214305,4250.586539576833,-2389.4461857612355,187500.0
1660693642.0098455,9286.769841524345,6322.68265756162,-133.9093010317446,4993.200897359955,5559.303529179518,4249.6030628208,-2385.668740948289,187500.0
1660693642.0098546,9326.667705377067,6317.050017958882,-138.6031673673591,5011.395217346575,5555.839008788945,4246.630280808244,-2390.6978834507327,187500.0
1660693642.0098636,9343.90090035211,6314.814843513352,-139.38547842329484,5022.951069229969,5555.3249186664725,4245.400934863203,-2390.943752639741,187500.0
1660693642.0098732,9352.819246389776,6314.747788279986,-136.45739989964963,5011.998714446869,5556.666023333791,4244.752734273999,-2388.507412494113,187500.0
1660693642.0098822,9343.789141629833,6315.4406923581,-132.0317544974988,4994.631409005095,5557.67185183428,4244.126885429249,-2388.596819471934,187500.0
1660693642.0098913,9278.052661186775,6317.25118365898,-131.0482777414653,4980.616865231617,5567.037232761054,4246.36205987478,-2387.6133427159,187500.0
1660693642.0099003,9257.287890587795,6322.839119772807,-130.3777254078061,5000.979304430402,5575.039157276054,4246.674984297155,-2388.6638747053,187500.0
1660693642.0099096,9356.015545846885,6323.2190994285465,-132.97052776462172,5017.363133116142,5571.596988629936,4248.910158742686,-2390.541421239546,187500.0
1660693642.0099187,9357.647223192123,6325.342515151801,-129.1260277183089,5019.844176750681,5575.933227054265,4247.971385475563,-2390.0943863504394,187500.0
1660693642.009928,9309.188641213017,6319.709875549063,-134.02105975402114,4999.481737551897,5574.547418898037,4245.400934863203,-2390.8990491508307,187500.0
1660693642.0099373,9257.600815010168,6318.68169530412,-135.65273709925856,4996.6877694949835,5573.429831675271,4244.864492996275,-2390.2955520505375,187500.0
1660693642.009946,9309.009827257374,6323.152044195181,-130.60124285235918,5016.6478772935725,5584.2033725027295,4244.618623807267,-2392.106043351417,187500.0
1660693642.0099556,9349.064153321286,6330.416361143156,-125.19212069417486,5001.94042944198,5566.567846127492,4249.6924697986215,-2390.4520142617243,187500.0
1660693642.0099647,9336.927156082053,6332.316259421857,-125.10271371635363,4973.330196539187,5566.210218216207,4249.6924697986215,-2392.2178020736937,187500.0
1660693642.009974,9265.200408124972,6332.360962910768,-124.94625150516649,4988.1270513686,5575.217971231696,4247.390240119725,-2395.145880597339,187500.0
1660693642.0099833,9321.973839041453,6329.522291364943,-126.91320501723351,4998.073577651212,5580.180058500774,4244.752734273999,-2398.632752732367,187500.0
1660693642.0099924,9317.391731428115,6328.762332053463,-125.72856256110222,5006.500185310863,5578.570732899992,4244.909196485186,-2397.8057381875205,187500.0
1660693642.010003,9365.000947117918,6332.048038488393,-121.25821367004082,5018.883051739103,5584.918628325299,4244.417458107168,-2398.7668631990987,187500.0
1660693642.0100124,9351.94752835602,6334.618489100753,-121.32526890340674,5043.291156684299,5605.057550079531,4241.891710983719,-2399.660932977311,187500.0
1660693642.0100214,9323.381998942137,6337.68067809113,-123.87336777131173,5022.727551785416,5606.242192535662,4240.036516193929,-2400.532651011068,187500.0
1660693642.0100305,9298.191582941006,6341.7710473264515,-118.9559839911442,4988.216458346422,5598.240268020662,4242.450504595102,-2399.23624983266,187500.0
1660693642.0100398,9293.050681716286,6341.011088014971,-119.67123981371401,4985.288379822777,5599.246096521151,4242.517559828468,-2399.4821190216685,187500.0
1660693642.010049,9361.402316260615,6339.82644555884,-119.00068748005481,5001.918077697525,5589.433680705271,4240.796475505409,-2401.650238233833,187500.0
1660693642.010058,9354.47327547947,6344.386201427723,-114.37387637780624,5006.813109733237,5601.481270966682,4242.875187739753,-2399.392712043847,187500.0
1660693642.0100672,9351.835769633743,6350.376468941745,-108.58477456388171,5033.925775757525,5602.1071198114305,4244.283347640437,-2401.1361481113613,187500.0
1660693642.0100772,9362.654013950112,6351.784628842429,-108.18244316368619,4985.578952500696,5595.647465663847,4243.344574373314,-2404.3547993129255,187500.0
1660693642.0100863,9298.057472474275,6344.565015383365,-113.70332404414702,4994.586705516184,5603.3364657564725,4242.674022039655,-2406.6123255029115,187500.0
1660693642.0100956,9406.754005760433,6346.6437276177085,-112.85395775484535,4991.725682225905,5604.319942512506,4241.556434816889,-2405.9641249137076,187500.0
1660693642.010105,9350.941699855532,6350.8682073197615,-111.0658181984208,4994.743167727372,5606.689227424768,4242.31639412837,-2404.4218545462913,187500.0
1660693642.010114,9342.671554407067,6348.074239262848,-112.56338507692637,5004.108548654145,5610.645486193358,4241.087048183328,-2404.9582964132187,187500.0
1660693642.0101233,9350.584071944246,6345.794361328407,-112.47397809910514,5009.987057445891,5614.266468795117,4241.243510394515,-2405.5841452579675,187500.0
1660693642.0101323,9362.654013950112,6346.68843110662,-111.24463215406325,5026.214423920444,5629.242137580173,4240.818827249865,-2408.33340982597,187500.0
1660693642.0101411,9363.145752328128,6350.532931152932,-106.14843441825325,5045.258110196365,5637.311117328539,4244.50686508499,-2409.1827761152717,187500.0
1660693642.0101504,9449.11056150324,6350.108248008281,-106.08137918488733,5040.676002583027,5631.343201558972,4248.083144197839,-2411.23913660516,187500.0
1660693642.0101595,9391.331302086272,6347.515445651466,-107.48953908557166,5023.934545986002,5628.884509668888,4247.926681986652,-2411.8873371943637,187500.0
1660693642.0101688,9334.647278147611,6343.290965949413,-113.23393741058558,5038.6643455820495,5627.252832323651,4246.339708130326,-2413.42960756178,187500.0
1660693642.010178,9342.828016618254,6345.794361328407,-114.10565544434256,5008.377731845108,5625.1741200893075,4246.473818597057,-2416.268279107604,187500.0
1660693642.0101871,9372.958168144009,6357.014937044971,-103.73444601708007,5058.7362121029155,5631.365553303427,4245.803266263398,-2418.592860530956,187500.0
1660693642.0101979,9386.056290394818,6356.6796608781415,-101.99100994956612,5058.959729547469,5631.276146325606,4244.953899974096,-2420.9621454432186,187500.0
1660693642.0102067,9424.322476902304,6356.456143433588,-97.52066105850471,4980.348644298154,5626.537576501081,4246.138542430227,-2418.2799361085818,187500.0
1660693642.010216,9362.162275572095,6345.503788650488,-107.91422223022249,4984.282551322288,5626.2917073120725,4246.406763363691,-2422.1244361548947,187500.0
1660693642.0102253,9335.407237459092,6338.708858336075,-117.25725141254085,5007.327199855709,5638.0934283844745,4243.389277862225,-2429.7910845030647,187500.0
1660693642.0102344,9335.47429269246,6345.749657839497,-111.51285308752693,5016.603173804662,5636.282937083595,4243.635147051233,-2430.52869207009,187500.0
1660693642.0102437,9342.246871262416,6352.321070709357,-105.07555068439851,5030.6177175781395,5642.16144587534,4246.518522085968,-2428.852311235942,187500.0
1660693642.0102527,9365.984423873953,6355.003280043993,-101.96865820511081,5015.485586581896,5636.618213250425,4251.771182032965,-2425.633660034378,187500.0
1660693642.0102618,9395.533430043868,6356.344384711312,-98.88411747027844,5029.544833844285,5646.698849999768,4251.435905866135,-2426.237157134671,187500.0
1660693642.0102708,9386.14569737264,6348.074239262848,-108.2271466525968,5061.932511560025,5647.615271522435,4247.9937372200175,-2428.4052763468358,187500.0
1660693642.01028,9378.926083913575,6355.003280043993,-103.39916985025047,5036.496226369885,5655.483085570703,4246.451466852602,-2425.8571774789307,187500.0
1660693642.0102892,9376.087412367751,6359.11600102377,-98.48178607008292,5035.199825191477,5666.748364776178,4246.920853486163,-2423.756113500132,187500.0
1660693642.0102985,9410.643209295657,6362.111134780781,-94.59258253485949,5024.672153553028,5660.199303650774,4250.407725621191,-2420.559814043023,187500.0
1660693642.0103076,9429.038694982373,6365.843876104817,-91.48569005557181,5021.721723284927,5664.244969397184,4250.1618564321825,-2418.4811018086793,187500.0
1660693642.0103166,9444.930785290097,6365.061565048882,-92.91620170071145,5052.075392255234,5674.727937546723,4248.686641298133,-2418.1905291307603,187500.0
1660693642.0103257,9386.324511328283,6367.877884850251,-89.67519875469193,5053.304738200276,5657.695908271779,4250.832408765842,-2415.9330029407743,187500.0
1660693642.0103347,9395.175802132584,6370.202466273602,-86.43419580867241,5057.506866157873,5668.4918008436925,4251.1006296993055,-2414.4801395511795,187500.0
1660693642.010344,9418.779244277388,6368.548437183909,-88.37879757628413,5031.645897823084,5670.212885166751,4249.915987243175,-2414.1001598954394,187500.0
1660693642.010353,9371.281787309861,6365.419192960167,-93.78791973446843,5034.931604258014,5687.490783630703,4248.351365131302,-2415.821244218498,187500.0
1660693642.0103624,9382.56941825979,6366.514428438477,-94.19025113466397,5084.597180437706,5695.783280823623,4246.451466852602,-2416.1118168964167,187500.0
1660693642.0103717,9411.760796518422,6374.046966319915,-85.7636434750132,5055.718726601449,5668.603559565969,4249.468952354068,-2412.4461308057466,187500.0
1660693642.0103805,9389.476107296481,6377.019748332471,-80.28746608346297,5039.066676982246,5657.986480949698,4250.988870977029,-2412.8037587170315,187500.0
1660693642.0103912,9353.66861267908,6377.243265777024,-78.61108524931494,5030.952993744969,5676.627835825424,4250.9218157436635,-2412.8037587170315,187500.0
1660693642.0104003,9398.617970778701,6375.589236687331,-81.06977713939871,5033.635203079606,5683.422766139837,4248.798400020409,-2415.4189128183025,187500.0
1660693642.0104096,9408.273924383393,6374.292835508923,-83.93080042967802,5065.307624972776,5690.3294551765275,4247.591405819822,-2417.9893634306627,187500.0
1660693642.010419,9403.423595836592,6377.466783221577,-83.2155446071082,5033.925775757525,5679.086527715508,4247.770219775465,-2420.269241365104,187500.0
1660693642.010428,9399.780261490378,6381.400690245711,-81.963846917611,5038.172607204033,5685.7920510521,4246.496170341512,-2421.5879942879674,187500.0
1660693642.0104373,9375.685080967556,6383.747623413518,-79.50515502752722,5045.414572407552,5683.489821373203,4245.535045329934,-2420.135130898372,187500.0
1660693642.0104463,9363.95041512852,6384.127603069259,-77.09116662635405,5066.492267428907,5696.118556990452,4244.9986034630065,-2420.828034976487,187500.0
1660693642.0104556,9366.207941318506,6383.568809457875,-75.9735794035887,5077.377566978642,5709.417844941359,4247.010260463984,-2422.794988488554,187500.0
1660693642.010465,9392.493592797946,6383.322940268868,-74.6995299696362,5056.702203357483,5708.456719929782,4248.530179086945,-2423.689058266766,187500.0
1660693642.0104744,9428.636363582178,6384.7981554029175,-70.72091945659155,5070.537933175317,5702.622914626946,4253.6040250783,-2417.6987907527437,187500.0
1660693642.0104835,9370.253607064917,6382.183001301647,-73.85016368033453,5097.114157332678,5722.493615447715,4250.854760510297,-2416.827072718987,187500.0
1660693642.0104923,9358.854217392709,6386.094556581325,-68.21752407759716,5097.807061410793,5731.501368463203,4254.408687878691,-2409.4509970487356,187500.0
1660693642.0105183,9309.300399935293,6387.88269613775,-67.0999368548318,5041.055982238768,5710.915411819865,4254.520446600967,-2406.075883635984,187500.0
1660693642.0105278,9345.979612586452,6386.630998448253,-69.82684967837926,5044.18522646251,5695.582115123524,4252.374679133258,-2408.3110580815146,187500.0
1660693642.0105498,9406.99987494944,6391.458975250599,-67.01052987701057,5079.791555379815,5707.875574573944,4251.257091910493,-2407.2158226032047,187500.0
1660693642.010559,9414.130081430683,6397.8292224203615,-60.617930962792755,5058.66915686955,5714.648153143901,4251.949995988607,-2405.2488690911377,187500.0
1660693642.0105684,9409.927953473087,6403.908896912205,-56.929893127667086,5036.384467647608,5711.787129853622,4253.514618100478,-2402.3878458008585,187500.0
1660693642.0105774,9446.808331824343,6402.634847478253,-57.15341057222016,5072.10255528719,5726.382818982937,4250.072449454361,-2404.0865783794616,187500.0
1660693642.0105865,9403.28948536986,6407.0381411359485,-51.16314305819787,5063.653595883084,5728.215662028273,4249.625414565256,-2402.3207905674926,187500.0
1660693642.0105956,9377.696737968534,6398.253905565012,-58.51686698399389,5065.195866250499,5723.253574759195,4249.8712837542635,-2402.1643283563053,187500.0
1660693642.0106046,9377.89790366863,6393.224763062569,-64.12715484227596,5073.600122165695,5734.742371409223,4246.898501741708,-2404.3547993129255,187500.0
1660693642.0106137,9400.048482423841,6404.378283545767,-55.78995416044643,5084.57482869325,5758.882255420954,4246.786743019431,-2403.460729534713,187500.0
1660693642.010625,9388.80555496282,6415.88943194025,-44.34586099932921,5091.325055518753,5766.884179935954,4257.694394313621,-2392.6871887072552,187500.0
1660693642.010634,9412.230183151984,6421.455016309621,-40.1884365306421,5094.923686376058,5745.918243636876,4256.800324535408,-2389.982627628163,187500.0
1660693642.010643,9437.53235787539,6416.068245895893,-47.31864301188505,5141.549425309829,5763.084383378552,4252.017051221973,-2392.7765956850762,187500.0
1660693642.010652,9432.860843284232,6407.485176025054,-55.92406462717827,5098.72348293346,5757.831723431555,4256.420344879669,-2388.7756334275764,187500.0
1660693642.0106611,9369.42659252007,6391.16840257268,-69.51392525600497,5101.7633201793815,5764.313729323594,4262.835295538342,-2383.791194414043,187500.0
1660693642.0106702,9358.451885992514,6382.07124257937,-73.98427414706637,5065.464087183963,5738.162188310885,4267.976196763062,-2379.522011223079,187500.0
1660693642.0106792,9393.7676422319,6385.7369286700405,-69.22335257808598,5065.374680206141,5728.908566106387,4267.730327574054,-2378.9855693561517,187500.0
1660693642.0106883,9399.71320625701,6392.889486895739,-63.970692631088816,5069.688566886016,5731.836644630032,4265.651615339711,-2379.6337699453557,187500.0
1660693642.0106976,9438.15820672014,6398.969161387582,-57.712204183602836,5095.236610798432,5754.747182696722,4262.768240304976,-2382.1818688132607,187500.0
1660693642.010707,9424.233069924483,6415.151824373224,-44.994061588533114,5099.7069596894935,5757.563502498091,4265.182228706149,-2379.365549011892,187500.0
1660693642.0107157,9414.130081430683,6430.239251880557,-29.817227103379622,5056.8586655686695,5738.050429588608,4268.579693863356,-2374.179944298261,187500.0
1660693642.0107248,9410.620857551201,6437.235347895068,-21.14475025472048,5060.747869103893,5747.304051793105,4267.4174031516795,-2375.0740140764733,187500.0
1660693642.010734,9473.541018192891,6436.698906028141,-21.032991532443948,5138.353125852719,5769.588741015046,4267.84208629633,-2376.3480635104256,187500.0
1660693642.0107431,9452.172750493617,6438.688211284663,-15.802683329902093,5121.3658000666865,5770.035775904153,4273.139449732238,-2371.631845430356,187500.0
1660693642.0107524,9442.226224211005,6434.262565882513,-19.133093253742846,5116.4931197754295,5770.616921259991,4270.792516564431,-2372.28004601956,187500.0
1660693642.0107615,9430.491558371968,6439.716391529607,-17.59082288632666,5112.5592127512955,5774.617883517491,4269.384356663747,-2371.005996585607,187500.0
1660693642.0107708,9441.44391315507,6446.734839288573,-10.28180244944125,5094.3648927646755,5780.518744053691,4273.742946832532,-2366.6474064168224,187500.0
1660693642.0107796,9468.578930923812,6449.282938156479,-5.789101813924529,5089.7827851513375,5767.554732269613,4278.839144568342,-2361.4841534476463,187500.0
1660693642.010789,9473.026928070418,6443.695002042652,-9.745360582513879,5112.112177862189,5767.308863080605,4281.6107608808,-2361.551208681012,187500.0
1660693642.0107977,9472.78105888141,6445.550196832442,-8.06897974836585,5113.229765084954,5792.2310581482725,4283.935342304152,-2358.824295857465,187500.0
1660693642.0108075,9456.799561595864,6451.0040224795375,-3.7327413240362795,5116.247250586421,5788.386558101959,4284.650598126722,-2354.443353944225,187500.0
1660693642.0108185,9481.520590963435,6445.974879977093,-9.05245650439936,5141.191797398544,5786.106680167518,4287.131641761261,-2348.855417830398,187500.0
1660693642.0108273,9489.455460245068,6444.499664843043,-10.617078616270854,5124.8303204572585,5795.047377949641,4290.260885985003,-2346.6872986182334,187500.0
1660693642.0108368,9440.907471288141,6443.292670642456,-12.85225306180156,5158.357937140219,5799.294209396149,4289.813851095897,-2347.603720140901,187500.0
1660693642.010846,9458.341831963282,6443.113856686814,-11.779369327946823,5166.9186552666015,5809.397197889948,4289.791499351442,-2346.4190776847695,187500.0
1660693642.4890623,9479.844210129288,6450.512284101521,-4.71621808006979,5134.262756617398,5826.876262053998,4292.473708686079,-2341.568749137968,187500.0
1660693642.4892092,9459.101791274761,6458.380098149789,-1.095235478310046,5135.045067673334,5799.4506716073365,4300.118005289794,-2333.7679903230655,187500.0
1660693642.489221,9467.72956463451,6468.058403498937,6.683171592136811,5130.999401926923,5788.408909846415,4306.130624548272,-2327.308336175482,187500.0
1660693642.4892313,9518.356265825782,6469.623025610808,9.477139649050194,5141.862349732202,5808.503128111735,4308.432854227168,-2326.2578041860825,187500.0
1660693642.489241,9488.002596855475,6468.281920943489,8.851290804301597,5136.162654896099,5796.880220994976,4309.058703071917,-2328.5153303760685,187500.0
1660693642.4892504,9494.082271347317,6469.958301777638,7.554889625893787,5141.392963098641,5801.305866397127,4306.912935604208,-2329.990545510119,187500.0
1660693642.4892597,9477.989015339495,6468.952473277149,8.404255915195456,5118.39301805413,5800.970590230298,4307.248211771037,-2327.397743153303,187500.0
1660693642.4892817,9475.552675193867,6460.391755150767,4.425645402150798,5131.7593612384035,5806.267953666205,4307.047046070939,-2328.023591998052,187500.0
1660693642.4892907,9480.134782807205,6457.217807438113,4.850328546801633,5161.084849963767,5815.566279359613,4309.729255405576,-2326.436618141725,187500.0
1660693642.4893,9471.35054723627,6467.119630231814,7.174909970153567,5136.900262463125,5810.492433368258,4310.958601350618,-2324.022629740552,187500.0
1660693642.4893093,9491.981207368519,6464.817400552917,6.61611635877089,5140.54359680934,5818.092026483063,4309.930421105673,-2322.502711117591,187500.0
1660693642.4893184,9506.956876153574,6462.47046738511,4.9397355246228605,5150.378364369674,5826.943317287364,4306.890583859752,-2324.8943477743087,187500.0
1660693642.4893274,9491.623579457233,6460.838790039872,4.425645402150798,5191.215001489521,5824.462273652825,4309.818662383397,-2323.597946595901,187500.0
1660693642.4893365,9410.665561040112,6464.0350894969815,8.650125104203834,5190.253876477942,5825.132825986484,4313.394941496246,-2322.45800762868,187500.0
1660693642.4893456,9475.127992049216,6467.879589543294,9.991229771522256,5132.944003694535,5812.3699799025035,4314.400769996735,-2322.726228562144,187500.0
1660693642.489355,9440.438084654581,6468.214865710123,10.66178210518147,5151.317137636797,5831.883052811987,4313.32788626288,-2322.145083206306,187500.0
1660693642.4893644,9430.335096160781,6469.667729099719,12.762846083980333,5158.894379007146,5831.704238856344,4318.647601443244,-2317.8088447819764,187500.0
1660693642.4893792,9495.937466137108,6467.99134826557,11.667610605670287,5198.702835882049,5831.659535367434,4322.961488123118,-2311.9303359902306,187500.0
1660693642.4893885,9505.727530208533,6468.840714554873,12.315811194874192,5170.8525622907355,5837.359230203537,4321.262755544514,-2311.304487145482,187500.0
1660693642.4893975,9469.405945468658,6465.823229053406,10.795892571913312,5156.033355716867,5848.088067542085,4320.323982277391,-2310.857452256376,187500.0
1660693642.4894068,9462.096925031772,6459.654147583741,5.498529136005537,5180.910847295624,5842.433076194892,4323.408523012224,-2307.2811731435268,187500.0
1660693642.489416,9488.717852678044,6466.627891853797,14.930965296145118,5176.26168444892,5843.036573295185,4324.324944534891,-2303.4143213527586,187500.0
1660693642.4894254,9495.848059159287,6471.522923889509,24.005773544999784,5180.664978106615,5841.270785483216,4326.649525958243,-2299.5251178175354,187500.0
1660693642.4894347,9523.765387983965,6465.309138930934,19.960107798589206,5159.609634829716,5838.409762192937,4331.209281827126,-2301.380312607326,187500.0
1660693642.4894438,9495.713948692555,6464.817400552917,17.859043819790344,5182.78839382987,5853.430134466903,4327.387133525269,-2305.537737076013,187500.0
1660693642.4894528,9469.808276868855,6472.171124478713,22.30704096639645,5201.8991353391575,5852.334898988593,4332.013944627517,-2299.346303861893,187500.0
1660693642.489462,9467.282529745404,6469.175990721702,21.055343276899254,5199.5522021713505,5843.438904695381,4336.3278313073915,-2293.2889811145046,187500.0
1660693642.4894712,9465.5837971668,6466.963168020627,20.00481128749982,5171.500762879939,5862.393183993481,4337.758342952531,-2290.4503095686805,187500.0
1660693642.4894805,9479.240713028994,6474.048671012959,26.2632997349858,5159.475524362984,5842.142503516973,4337.33365980788,-2287.0975479003846,187500.0
1660693642.4894896,9480.514762462946,6471.008833767037,24.966898556577988,5159.967262741001,5831.2125004783275,4337.199549341149,-2286.114071144351,187500.0
1660693642.4894986,9513.193012856605,6475.657996613741,29.14667476972041,5190.432690433585,5844.847064596065,4336.819569685408,-2288.349245589882,187500.0
1660693642.4895077,9504.02879762993,6472.238179712079,24.3634014562847,5210.593963932271,5862.594349693579,4334.80791268443,-2292.171393891739,187500.0
1660693642.4895167,9483.621654942233,6468.952473277149,20.831825832346183,5164.325852909787,5852.826637366609,4336.931328407684,-2289.243315368094,187500.0
1660693642.489526,9493.657588202666,6475.434479169188,28.498474180516506,5172.216018702509,5849.92091058742,4342.653374988243,-2283.431861809714,187500.0
1660693642.489535,9508.83442268782,6478.9437030486715,33.25939574949691,5180.106184495233,5856.3358612460925,4347.14607562376,-2277.374539062326,187500.0
1660693642.4895446,9518.40096931469,6475.032147768992,31.091276537332124,5191.706739867537,5867.019995095729,4348.308366335436,-2276.6816349842115,187500.0
1660693642.4895537,9495.535134736912,6479.23427572659,29.794875358924315,5189.158640999633,5870.149239319473,4347.816627957419,-2280.168507119239,187500.0
1660693642.4895627,9470.992919324985,6481.0000635385595,29.034916047443875,5210.8845366101905,5878.911123145953,4347.90603493524,-2281.531963531013,187500.0
1660693642.489572,9481.051204329873,6481.961188550137,28.118494524776285,5229.928222886112,5883.001492381274,4345.492046534067,-2283.476565298625,187500.0
1660693642.489583,9525.665286262667,6486.0515577854585,34.37698297226226,5176.284036193376,5866.930588117908,4350.387078569779,-2277.799222206977,187500.0
1660693642.489592,9530.627373531745,6485.716281618629,38.176779529664465,5181.894324051657,5874.887809143997,4350.677651247698,-2279.0732716409293,187500.0
1660693642.4896011,9503.78292844092,6484.911618818238,39.8755121082678,5217.299487268864,5886.801288938676,4352.085811148383,-2276.636931495301,187500.0
1660693642.4896107,9526.671114763156,6489.270208987023,42.98240458755548,5243.071048625833,5893.931495419919,4355.550331538955,-2272.5242105155244,187500.0
1660693642.4896197,9524.83827171782,6497.160374779746,48.03389883445488,5219.311144269842,5872.719689931833,4360.9818054415955,-2270.5796087479125,187500.0
1660693642.4896288,9536.997620701506,6498.255610258057,49.799686646424135,5185.314140953319,5866.349442762071,4361.562950797433,-2270.4231465367257,187500.0
1660693642.489638,9550.721591797066,6498.926162591715,54.1135733262984,5188.711606110526,5867.087050329095,4364.24516013207,-2267.472716268625,187500.0
1660693642.4896472,9523.586574028323,6502.882421360305,59.67915769566986,5198.121690526211,5865.276559028216,4365.742727010575,-2264.7234517006223,187500.0
1660693642.4896562,9571.642824607234,6511.800767397973,66.07175660988767,5208.805824375847,5877.681777200911,4366.81561074443,-2263.6505679667675,187500.0
1660693642.4896655,9550.431019119147,6515.1088255773575,65.55766648741562,5214.214946534032,5881.883905158509,4369.34135786788,-2262.7564981885553,187500.0
1660693642.4896748,9542.943184726619,6510.660828430752,62.003739119021795,5237.147836345177,5880.296931302182,4370.235427646092,-2261.7506696880664,187500.0
1660693642.4896839,9533.778969499943,6517.165186067246,67.36815778829549,5213.656152922649,5890.936361662908,4373.185857914193,-2257.5261899860134,187500.0
1660693642.4896932,9537.690524779622,6514.9300116217155,65.35650078731786,5211.55508894385,5899.273562344738,4371.822401502419,-2257.213265563639,187500.0
1660693642.489702,9564.780839059453,6502.14481379328,54.51590472649393,5208.895231353668,5905.241478114304,4368.2014189006595,-2259.403736520259,187500.0
1660693642.4897113,9546.295946394916,6508.760930152051,57.511038483505075,5238.868920668236,5919.5465945657015,4367.709680522643,-2260.5213237430244,187500.0
1660693642.4897203,9567.395993160724,6519.199194812679,69.46922176709435,5238.734810201503,5912.3269811066375,4372.850581747363,-2255.0004428625634,187500.0
1660693642.4897296,9589.144240515738,6520.115616335347,74.45366078062783,5229.861167652746,5900.8828879455195,4378.304407394458,-2249.837189893388,187500.0
1660693642.4897387,9589.770089360487,6522.730770436618,74.18543984716415,5239.405362535163,5910.874117717042,4378.460869605645,-2251.021832349519,187500.0
1660693642.489748,9597.704958642122,6527.3128780499555,75.34773055884011,5245.194464349087,5910.583545039123,4380.785451028997,-2249.524265471013,187500.0
1660693642.4897573,9619.542612974956,6539.449875289188,88.13292838727575,5268.797906493892,5900.16763212295,4390.195535444682,-2242.371707245315,187500.0
1660693642.4897661,9576.068470009384,6545.730715481129,91.97742843358856,5270.18371465012,5902.827489713131,4393.861221535351,-2238.571910687913,187500.0
1660693642.489777,9528.07927466384,6549.329346338433,95.84428022435668,5240.098266613277,5911.3882078395145,4396.342265169891,-2236.53790194248,187500.0
1660693642.4897866,9573.050984507918,6548.077648648936,96.44777732464998,5231.671658953626,5925.31334463517,4395.336436669402,-2237.2308060205946,187500.0
1660693642.4897957,9616.346313517846,6547.563558526464,95.86663196881199,5253.978699920023,5929.046085959207,4393.548297112978,-2235.7108873976335,187500.0
1660693642.4898047,9598.196697020137,6549.351698082888,97.58771629187063,5282.119546189255,5920.328905621637,4393.2130209461475,-2232.9392710851757,187500.0
1660693642.489814,9597.503792942023,6551.273948106044,97.43125408068349,5269.334348360819,5922.340562622615,4398.912715782251,-2227.5525006714465,187500.0
1660693642.489823,9597.883772597763,6552.458590562176,99.42055933720582,5212.158586044144,5930.655411559989,4403.718340840142,-2221.6739918797007,187500.0
1660693642.4898322,9592.072319039384,6551.318651594956,98.83941398136783,5212.404455233152,5928.084960947628,4404.701817596176,-2219.0141342895195,187500.0
1660693642.4898417,9597.794365619942,6557.174808642246,102.05806518293205,5233.683315954604,5923.41344635647,4404.992390274095,-2218.254174978039,187500.0
1660693642.4898505,9606.958580846618,6563.969738956659,106.84133849636775,5252.9058161861685,5925.402751612992,4404.388893173801,-2220.802273845944,187500.0
1660693642.48986,9612.121833815794,6561.265177877567,102.84037623886779,5248.927205673123,5943.4406093884245,4403.584230373411,-2222.9033378247427,187500.0
1660693642.489869,9581.343481700836,6558.91824470976,101.20869889363038,5277.984473465022,5937.472693618857,4403.494823395589,-2224.758532614533,187500.0
1660693642.4898784,9569.139429228238,6564.126201167846,108.09303618586496,5271.904798973179,5927.034428958229,4408.836890320407,-2219.148244756251,187500.0
1660693642.4898872,9584.338615457847,6564.662643034773,109.07651294189847,5265.780420992425,5935.349277895603,4410.4685676656445,-2216.3989801882485,187500.0
1660693642.4898963,9593.23460975106,6557.0183464310585,104.40499835073929,5261.198313379087,5952.22484495936,4407.92046879774,-2216.600145888346,187500.0
1660693642.4899056,9566.747792571521,6561.287529622023,110.05998969793198,5232.588080476294,5942.993574499318,4416.190614246204,-2207.5923928728575,187500.0
1660693642.489915,9529.241565375516,6571.837553004927,113.68097229969172,5247.474342283528,5936.891548263019,4422.694971882698,-2202.33973292586,187500.0
1660693642.489924,9642.453151041645,6574.787983273028,118.62070782431458,5261.734755246014,5938.612632586078,4428.0817422964265,-2197.064721234408,187500.0
1660693642.4899333,9625.577583977889,6573.424526861254,121.39232413677266,5265.467496570051,5949.207359457893,4430.138102786315,-2192.572020598891,187500.0
1660693642.4899423,9627.790406678963,6574.653872806296,124.25334742705196,5272.7541652624805,5956.9410630394295,4434.139065043815,-2188.3922443857487,187500.0
1660693642.4899511,9632.104293358838,6580.219457175667,126.48852187258267,5281.069014199855,5959.623272374067,4439.883463368829,-2184.6595030617123,187500.0
1660693642.4899604,9637.826339939396,6584.108660710891,129.84128354087872,5308.606363368794,5971.000310301818,4443.616204692866,-2183.340750138849,187500.0
1660693642.4899714,9638.541595761966,6582.007596732092,129.55071086295973,5276.106926930777,5958.952720040407,4445.650213438298,-2181.6420175602457,187500.0
1660693642.4899805,9595.961522574607,6582.611093832385,125.639155583281,5255.856246454268,5941.116027965072,4445.091419826916,-2178.7586425255113,187500.0
1660693642.4899898,9616.592182706856,6587.461422379187,128.54488236247093,5249.1507231176765,5947.598033857112,4448.421829750756,-2175.607046557313,187500.0
1660693642.4900131,9618.38032226328,6589.048396235514,132.5681963644262,5272.374185606741,5964.115973009583,4452.288681541524,-2174.243590145539,187500.0
1660693642.4900362,9606.578601190879,6591.976474759159,136.01036501054347,5275.592836808305,5962.4619439198905,4454.747373431608,-2174.310645378905,187500.0
1660693642.4900582,9647.594052266366,6594.457518393698,139.2066644676524,5284.242961912509,5969.212170745393,4454.680318198242,-2176.054081446419,187500.0
1660693642.4900675,9642.609613252833,6599.084329495947,142.91705404723336,5281.314883388864,5967.245217233327,4459.664757211775,-2171.2037528996175,187500.0
1660693642.4900763,9638.966278906617,6599.777233574061,145.5545598929596,5279.1467641766985,5969.70390912341,4464.738603203131,-2166.576941797369,187500.0
1660693642.4900856,9635.412351538223,6593.406986404299,139.6089958678479,5287.327502647341,5972.810801602698,4466.951425904206,-2163.537104551447,187500.0
1660693642.490095,9651.371497079313,6594.345759671422,141.30772844645125,5295.687055073626,5973.593112658634,4468.493696271622,-2160.7431364945337,187500.0
1660693642.490104,9626.136377589271,6597.832631806449,146.62744362681434,5310.841537814324,5987.831173876664,4470.147725361315,-2157.7480027375227,187500.0
1660693642.490113,9636.5746422499,6598.391425417832,145.68867035969143,5306.594706367816,5979.382214472558,4472.31584457348,-2155.758697481,187500.0
1660693642.490122,9651.706773246142,6608.159137744801,151.67893787371372,5284.511182845972,5985.394833731036,4474.685129485742,-2155.1328486362518,187500.0
1660693642.4901311,9654.165465136226,6609.366131945388,152.41654544073887,5283.125374689744,5976.588246415645,4475.623902752865,-2155.6469387587235,187500.0
1660693642.4901404,9660.33454660589,6609.232021478656,152.05891752945394,5317.390598939729,5983.494935452335,4475.690957986231,-2156.406898070204,187500.0
1660693642.4901495,9632.216052081116,6605.0298935210585,148.50499016106014,5311.512090147983,5981.527981940268,4476.875600442362,-2156.250435859017,187500.0
1660693642.4901588,9625.264659555514,6605.231059221156,147.96854829413275,5311.601497125805,5987.652359921022,4480.049548155016,-2153.478819546559,187500.0
1660693642.4901679,9622.62715370979,6606.214535977189,149.0861355168981,5322.91147982019,5992.7485576568315,4478.417870809779,-2152.85297070181,187500.0
1660693642.490177,9656.132418648294,6603.688788853739,150.24842622857406,5341.463427718095,6015.569688745701,4474.3275015744575,-2154.9540346806093,187500.0
1660693642.490186,9674.371442123824,6606.348646443921,152.30478671846234,5305.655933100693,6012.440444521957,4478.350815576412,-2152.1377148792403,187500.0
1660693642.4901953,9665.989537953084,6620.162024517301,164.35237697987284,5299.039816741922,5977.32585398267,4492.655932027809,-2140.827732184855,187500.0
1660693642.4902043,9668.917616476729,6621.2349082511555,165.8722956028337,5299.419796397662,5984.768984886287,4496.075748929471,-2136.960880394087,187500.0
1660693642.4902153,9692.074023732428,6619.73734137265,167.95100783717726,5303.599572610805,5989.239333777348,4501.0378361985495,-2133.7198774480676,187500.0
1660693642.4902244,9657.875854715807,6624.45355945272,174.85769687386716,5344.592671941838,5988.546429699234,4507.2069176682135,-2130.545929735414,187500.0
1660693642.4902334,9660.222787883615,6630.8014548780275,181.40675799927212,5344.592671941838,6007.791281675253,4510.17969968077,-2128.8024936679,187500.0
1660693642.4902425,9677.187761925194,6629.102722299424,180.44563298769393,5303.063130743877,6003.209174061915,4511.520804348088,-2126.343801777816,187500.0
1660693642.4902515,9672.516247334033,6617.680980882762,170.5214584495376,5282.186601422621,5993.6649791795,4513.666571815797,-2127.2378715560285,187500.0
1660693642.4902608,9619.922592630695,6609.83551857895,168.50980144855995,5281.605456066783,5987.808822132209,4517.801644540029,-2124.2427377990175,187500.0
1660693642.49027,9652.779656979998,6612.003637791114,171.862563116856,5314.842500071824,5995.52017396929,4518.874528273885,-2123.3933715097155,187500.0
1660693642.490279,9704.658055860766,6619.871451839382,178.1434033087973,5327.091256033333,6001.443386249946,4522.853138786929,-2118.7889121519224,187500.0
1660693642.490288,9706.200326228181,6635.696486913739,185.94416212369944,5322.86677633128,6000.124633327083,4525.423589399289,-2114.2738597719504,187500.0
1660693642.4902973,9699.49480289159,6643.206673050723,189.09575809189775,5336.6130991712935,6007.165432830505,4526.719990577697,-2112.1057405597858,187500.0
1660693642.4903064,9703.786337827009,6644.570129462497,189.38633076981674,5340.636413173248,6010.0041043763285,4530.877415046384,-2109.3117725028724,187500.0
1660693642.4903157,9694.644474344788,6642.178492805779,186.92763887973297,5354.852122646824,6016.7543312018315,4535.347763937445,-2107.993019580009,187500.0
1660693642.4903245,9662.077982673405,6641.731457916672,186.83823190191174,5354.270977290986,6014.653267223033,4538.477008161189,-2107.7024469020903,187500.0
1660693642.4903336,9695.426785400723,6637.775199148083,183.41841500024975,5395.129966155287,6024.108055127627,4537.828807571985,-2110.2952492589056,187500.0
1660693642.4903429,9714.11284376536,6642.580824205974,188.9392958807106,5387.999759674044,6036.6250320226,4540.689830862264,-2108.5965166803026,187500.0
1660693642.490352,9686.977825996617,6646.380620763376,192.87320290484465,5331.829825857857,6024.868014439108,4546.031897787082,-2105.1766997786403,187500.0
1660693642.4903612,9672.5833025674,6652.750867933139,197.8129384294675,5319.8269390853575,6004.930258384974,4552.737421123675,-2101.868641599255,187500.0
1660693642.9697409,9711.29652396399,6650.962728376714,195.2648395615625,5361.758811683513,6018.3413050581585,4554.793781613563,-2101.309847987872,187500.0
1660693642.969886,9713.129367009327,6658.048231369046,202.93148790973282,5344.838541130846,6016.329648057181,4557.051307803548,-2101.3321997323274,187500.0
1660693642.9698968,9710.134233252315,6666.296025073055,210.7993019580009,5366.206808830119,6022.141101615561,4560.292310749568,-2102.22626951054,187500.0
1660693642.9699075,9717.040922289005,6667.771240207106,214.68850549322434,5367.525561752983,6035.708610499932,4561.856932861439,-2105.7578451344784,187500.0
1660693642.9699223,9692.565762110444,6655.097801100946,204.69727572170208,5382.568285771405,6048.225587394904,4560.940511338772,-2107.32246724635,187500.0
1660693642.969932,9684.340320150892,6645.352440518433,194.77310118354575,5417.660524566237,6042.436485580979,4559.197075271258,-2109.781159136434,187500.0
1660693642.9699411,9719.566669412456,6656.304795301533,201.925659409244,5383.819983460901,6029.181901118983,4560.739345638674,-2111.122263803752,187500.0
1660693642.9699512,9708.21198322916,6668.218275096211,211.53690952502603,5386.904524195734,6048.1585321615385,4560.962863083228,-2118.185415051629,187500.0
1660693642.9699607,9735.749332398098,6681.808135725038,225.43969457622703,5336.367229982285,6044.314032115225,4574.642130689876,-2118.7218569185566,187500.0
1660693642.96997,9758.25753906459,6695.219182398222,237.66609879327999,5367.7267274530805,6036.401514578047,4586.95794188475,-2106.9871910795205,187500.0
1660693642.9699795,9731.524852696044,6686.479650316197,226.2220056321628,5380.981311915078,6040.693049513466,4591.629456475908,-2098.2476589974954,187500.0
1660693642.9699888,9697.259628446058,6668.777068707594,210.732246724635,5380.221352603598,6040.111904157628,4586.28738955109,-2117.090179573319,187500.0
1660693642.9699981,9710.849489074884,6659.657556969829,203.08795012091997,5373.8287536893795,6043.889348970574,4581.19119181528,-2127.70725818959,187500.0
1660693642.9700077,9733.134178296827,6665.692527972762,206.77598795604564,5390.749024242047,6025.3821045615805,4585.728595939708,-2095.9677810630537,187500.0
1660693642.9700172,9723.411169458768,6679.014167668124,221.34932534090584,5390.838431219868,6037.295584356259,4589.707206452752,-2095.2748769849395,187500.0
1660693642.9700265,9739.571480699955,6686.122022404912,229.19478764471862,5359.478933749072,6048.985546706384,4590.28835180859,-2097.197127008096,187500.0
1660693642.970036,9760.984451888138,6702.908182490848,243.79047677403412,5384.490535794561,6057.792134021775,4591.33888379799,-2106.920135846154,187500.0
1660693642.9700453,9770.282777581546,6722.33184842251,261.2695409380843,5394.9735039441,6059.468514855924,4595.161032099847,-2119.951202863598,187500.0
1660693642.9700549,9710.178936741226,6728.1209502364345,266.5445526295367,5390.436099819673,6053.098267686161,4603.609991503953,-2100.8628130987663,187500.0
1660693642.970064,9713.35288445388,6698.661351044339,238.53781682703698,5379.483745036572,6051.779514763298,4611.500157296677,-2076.4994116424814,187500.0
1660693642.9700737,9795.227324393669,6701.812947012538,244.9527674857101,5403.914201726223,6061.927206746007,4606.873346194428,-2089.3963681931937,187500.0
1660693642.970083,9724.238184003614,6704.226935413711,251.59123558893629,5405.657637793736,6057.456857854946,4607.230974105713,-2093.4420339396042,187500.0
1660693642.9700923,9743.661849935275,6703.42227261332,251.47947686665975,5426.176539203709,6063.670642813521,4606.336904327501,-2100.7957578654,187500.0
1660693642.9701016,9747.953384870694,6711.871232017426,256.0168809910871,5453.468019183639,6073.483058629401,4606.538070027598,-2107.613039924269,187500.0
1660693642.9701111,9751.060277349983,6729.350296181477,268.01976776358697,5414.531280342493,6077.573427864722,4610.3378665850005,-2107.255412012984,187500.0
1660693642.9701223,9745.673506936253,6722.980049011713,264.21997120618477,5367.592616986349,6048.136180417083,4614.160014886858,-2098.806452608878,187500.0
1660693642.970132,9721.086588035416,6697.052025443558,243.20933141819614,5374.655768234225,6042.5258925588005,4616.015209676649,-2093.6655513841574,187500.0
1660693642.9701412,9735.704628909187,6709.904278505359,255.83806703544465,5418.062855966432,6059.356756133647,4620.686724267808,-2086.8929728141993,187500.0
1660693642.9701507,9778.17294337427,6735.631136373418,276.8487068234333,5438.805274820957,6065.615244581133,4625.335887114512,-2090.1339757602186,187500.0
1660693642.9701605,9792.4110045923,6747.276395234632,283.82245109348906,5458.228940752619,6080.769727321831,4630.096808683492,-2089.262257726462,187500.0
1660693642.9701698,9774.730774728152,6747.119933023445,284.15772726031867,5479.731318918624,6089.866887315141,4633.6954395407965,-2086.5353449029144,187500.0
1660693642.970179,9787.784193490052,6751.8361511035155,285.4988319276371,5399.35444585734,6071.314939417236,4637.182311675824,-2084.389577435205,187500.0
1660693642.9701884,9787.694786512231,6751.657337147873,284.44829993823765,5416.989972232577,6062.48600035739,4642.904358256383,-2085.2389437245065,187500.0
1660693642.970198,9795.249676138124,6758.4075639733755,290.05858779651976,5461.0005570650765,6078.847477298675,4648.20172169229,-2085.50716465797,187500.0
1660693642.9702075,9807.476080355178,6765.090735565512,293.85838435392196,5439.721696343625,6080.456802899457,4653.096753728003,-2087.965856548054,187500.0
1660693642.9702168,9803.765690775597,6765.358956498976,290.9079540858214,5404.7635680155245,6086.380015180113,4659.712870086774,-2089.4410716821044,187500.0
1660693642.970226,9790.265237124591,6759.569854685052,281.9896080481539,5438.402943420761,6086.15649773556,4664.764364333673,-2093.3079234728725,187500.0
1660693642.9702353,9760.31389955448,6772.936197869325,292.696093642246,5488.694368445203,6091.520916404834,4671.469887670265,-2097.085368285819,187500.0
1660693642.970245,9774.753126472608,6780.222866561755,296.697055899746,5495.712816204169,6102.137995021105,4678.175411006858,-2085.6189233802465,187500.0
1660693642.9702744,9804.011559964605,6774.210247303277,287.86811683989964,5451.903397071766,6096.170079251538,4685.663245399385,-2070.129164472719,187500.0
1660693642.9703,9779.64815850832,6750.785619114115,264.7787648175675,5457.871312841334,6089.911590804051,4693.843983870028,-2045.0505071938644,187500.0
1660693642.9703093,9806.246734410135,6757.692308150806,268.28798869705065,5453.356260461362,6086.134145991105,4690.535925690642,-2048.6267863067137,187500.0
